2019-09-26 13:32:07,846 - INFO : Number of clusters in a model: 20
2019-09-26 13:32:12,336 - INFO : Cluster center 0 : 
[9.86207357e-01 6.83860228e-01 4.28087736e-01 3.44686658e-01
 4.02207588e-01 3.77099689e-01 3.87554302e-01 3.71197010e-01
 3.66830827e-01 3.70076016e-01 3.57779008e-01 3.67251301e-01
 3.56699822e-01 3.76976118e-01 3.85481811e-01 3.69375718e-01
 3.71735414e-01 3.58541075e-01 3.71570019e-01 3.76021362e-01
 3.78475443e-01 3.66521816e-01 3.65594763e-01 3.75047271e-01
 3.66231037e-01 3.63580383e-01 3.52234108e-01 3.49732264e-01
 3.73289996e-01 3.68434862e-01 3.57071868e-01 3.55211203e-01
 3.74577019e-01 3.98618601e-01 3.98521837e-01 3.99577305e-01
 3.90805057e-01 3.82784940e-01 3.77343844e-01 3.83219564e-01
 3.77530108e-01 3.81009918e-01 3.56491209e-01 3.84242822e-01
 3.76156345e-01 3.71230823e-01 3.60891532e-01 3.66837407e-01
 3.79878509e-01 3.72455830e-01 3.72403702e-01 3.59815723e-01
 3.73274877e-01 3.85558288e-01 3.84852162e-01 3.80207111e-01
 3.80877275e-01 3.69580513e-01 3.73457621e-01 3.92161478e-01
 3.86730731e-01 3.95578301e-01 3.95162989e-01 4.06715121e-01
 3.88350307e-01 3.96019280e-01 3.79427903e-01 3.79309485e-01
 4.10796333e-01 4.38260637e-01 4.47360142e-01 4.55612230e-01
 4.56792794e-01 4.76183349e-01 4.86017518e-01 4.77601837e-01
 4.58341486e-01 4.01922303e-01 4.22124382e-01 3.95165049e-01
 3.79121474e-01 3.62711585e-01 3.34310318e-01 3.65836965e-01
 2.96538674e-01 1.98163112e-01 1.92298390e-01 3.20555933e-01
 6.88851211e-01 5.96098392e-01 5.07603618e-01 5.43615205e-01
 3.92101417e-01 3.04515786e-01 2.80264688e-01 3.13137931e-01
 3.31224110e-01 3.22144376e-01 3.50638375e-01 3.61971896e-01
 3.58133566e-01 3.23898511e-01 3.18976305e-01 3.32652596e-01
 3.17393657e-01 1.37473192e-01 1.30753953e-01 1.26476843e-01
 1.29965154e-01 3.80449704e-02 3.73305325e-02 3.80102575e-02
 3.83271260e-02 4.04118768e-02 3.84970827e-02 2.57949429e-02
 4.04091882e-02 4.70904299e-02 3.57186249e-02 2.61610159e-02
 2.22865387e-02 2.91897169e-02 2.75470657e-02 1.50375967e-02
 1.35559606e-02 7.09404477e-03 1.44702460e-02 1.68528472e-02
 1.72885128e-02 1.75432912e-02 1.67988283e-02 1.74266194e-02
 1.79036336e-02 1.73138951e-02 1.89489101e-02 1.81893485e-02
 1.93481292e-02 2.01751598e-02 1.98473581e-02 2.01315113e-02
 1.00190478e-02 1.01904758e-02 1.05333337e-02 1.04952378e-02
 1.03428568e-02 8.57142857e-15 8.57142857e-15 8.57142857e-15
 8.57142857e-15 8.57142857e-15 8.57142857e-15 8.57142857e-15
 8.57142857e-15 8.57142857e-15 8.57142857e-15 8.57142857e-15
 8.57142857e-15 8.57142857e-15 8.57142857e-15 8.57142857e-15
 8.57142857e-15 8.57142857e-15 8.57142857e-15 8.57142857e-15
 8.57142857e-15 8.57142857e-15 8.57142857e-15 8.57142857e-15
 8.57142857e-15 8.57142857e-15 8.57142857e-15 8.57142857e-15
 8.57142857e-15 8.57142857e-15 8.57142857e-15 8.57142857e-15
 8.57142857e-15 8.57142857e-15 8.57142857e-15 8.57142857e-15
 8.57142857e-15 8.57142857e-15 8.57142857e-15 8.57142857e-15
 8.57142857e-15 8.57142857e-15 8.57142857e-15 1.00000000e+00]

2019-09-26 13:32:13,967 - INFO : Cluster center 1 : 
[ 9.95055529e-01  7.46676090e-01  4.12815489e-01  2.56990399e-01
  2.17434062e-01  2.29754202e-01  2.41068841e-01  2.39177386e-01
  2.46341545e-01  2.46774391e-01  2.48544252e-01  2.55234349e-01
  2.53582476e-01  2.54039062e-01  2.54371265e-01  2.53439466e-01
  2.52534772e-01  2.63211683e-01  2.58466251e-01  2.62070441e-01
  2.67434392e-01  2.73677760e-01  2.73015123e-01  2.75922742e-01
  2.72777257e-01  2.70720290e-01  2.76027674e-01  2.78081447e-01
  2.83533504e-01  2.67754338e-01  2.71898637e-01  2.69681440e-01
  2.65048187e-01  2.78677205e-01  2.69361046e-01  2.67382305e-01
  2.62986839e-01  2.61732115e-01  2.59408441e-01  2.58842033e-01
  2.56237279e-01  2.54784251e-01  2.55817546e-01  2.59783111e-01
  2.54046839e-01  2.51130731e-01  2.54585177e-01  2.54120174e-01
  2.51664937e-01  2.47515406e-01  2.45343902e-01  2.45939080e-01
  2.52403846e-01  2.50876882e-01  2.37571876e-01  2.45005098e-01
  2.39360196e-01  2.50253572e-01  2.46728395e-01  2.41573538e-01
  2.57902315e-01  2.52403106e-01  2.55458455e-01  2.65154226e-01
  2.65669771e-01  2.74099800e-01  2.62952393e-01  2.52670552e-01
  2.42681869e-01  2.35150672e-01  2.28577108e-01  2.35344864e-01
  2.29753657e-01  2.34614733e-01  2.34028960e-01  2.30137904e-01
  2.20418009e-01  2.11789945e-01  2.35627883e-01  2.83669084e-01
  3.07485631e-01  2.90659348e-01  2.50053517e-01  2.33917173e-01
  2.39850031e-01  2.86254188e-01  2.67159071e-01  2.01575928e-01
  2.20814639e-01  2.61528405e-01  2.46020220e-01  2.44888609e-01
  2.72259815e-01  2.63522327e-01  2.35681499e-01  1.94977088e-01
  1.99422194e-01  2.46361510e-01  4.47765305e-01  5.89210900e-01
  6.21794435e-01  4.55017170e-01  3.25604269e-01  2.83450128e-01
  2.39397128e-01  2.32382456e-01  2.16336000e-01  2.03894371e-01
  2.03599818e-01  1.95987490e-01  1.88746194e-01  1.92564983e-01
  1.94263212e-01  2.02828545e-01  2.01704104e-01  1.47901971e-01
  2.03095993e-01  2.22974468e-01  1.13650170e-01  8.32395960e-02
  7.09117141e-02  9.28763718e-02  8.76497545e-02  4.78468984e-02
  4.31326018e-02  2.25719606e-02  4.60416918e-02  5.36226955e-02
  5.50089045e-02  5.58195629e-02  5.34508174e-02  5.54483343e-02
  5.69661070e-02  5.50896661e-02  6.02919866e-02  5.78751998e-02
  6.15622293e-02  6.41936904e-02  6.31506849e-02  6.40548088e-02
  3.18787884e-02  3.24242413e-02  3.35151526e-02  3.33939384e-02
  3.29090899e-02 -2.72727273e-15 -2.72727273e-15 -2.72727273e-15
 -2.72727273e-15 -2.72727273e-15 -2.72727273e-15 -2.72727273e-15
 -2.72727273e-15 -2.72727273e-15 -2.72727273e-15 -2.72727273e-15
 -2.72727273e-15 -2.72727273e-15 -2.72727273e-15 -2.72727273e-15
 -2.72727273e-15 -2.72727273e-15 -2.72727273e-15 -2.72727273e-15
 -2.72727273e-15 -2.72727273e-15 -2.72727273e-15 -2.72727273e-15
 -2.72727273e-15 -2.72727273e-15 -2.72727273e-15 -2.72727273e-15
 -2.72727273e-15 -2.72727273e-15 -2.72727273e-15 -2.72727273e-15
 -2.72727273e-15 -2.72727273e-15 -2.72727273e-15 -2.72727273e-15
 -2.72727273e-15 -2.72727273e-15 -2.72727273e-15 -2.72727273e-15
 -2.72727273e-15 -2.72727273e-15 -2.72727273e-15  1.00000000e+00]

2019-09-26 13:32:14,478 - INFO : Cluster center 2 : 
[0.99223012 0.72097624 0.37720017 0.2192934  0.18879513 0.22203446
 0.24697101 0.24660106 0.26024449 0.26049096 0.25980239 0.27226715
 0.2677196  0.27125629 0.27286262 0.2729164  0.27691625 0.28371866
 0.2842854  0.28778053 0.29425784 0.30450257 0.31213572 0.31171703
 0.31501484 0.31807144 0.32229125 0.33028955 0.33798962 0.32316939
 0.33011559 0.32229421 0.31349535 0.32320189 0.31333315 0.30089868
 0.28705197 0.28920062 0.28815146 0.27923753 0.28034902 0.2774151
 0.28185804 0.28939081 0.2779912  0.27297502 0.28274066 0.28504599
 0.28335637 0.27119729 0.26778493 0.26958765 0.2723733  0.27691334
 0.2586078  0.27028858 0.26618895 0.27571698 0.27950244 0.26576357
 0.28968819 0.29015474 0.29408856 0.30889104 0.30514711 0.31514138
 0.2982746  0.27691276 0.27552908 0.25762224 0.25076213 0.2579274
 0.25261099 0.26111727 0.26041363 0.26058808 0.239025   0.22503289
 0.26227564 0.33213057 0.36521936 0.33942864 0.26911365 0.253949
 0.2808378  0.34768651 0.29686125 0.22090964 0.24919015 0.3155544
 0.28793148 0.28420149 0.32829768 0.31218187 0.27515469 0.26540585
 0.31337773 0.31644285 0.42257942 0.4809042  0.42714619 0.31947264
 0.27680345 0.28429396 0.23978996 0.24568205 0.2215505  0.20568601
 0.20262081 0.19022485 0.18665266 0.19005129 0.19163563 0.20205938
 0.19248541 0.12897471 0.20204594 0.23545215 0.17859312 0.13080508
 0.11143269 0.14594858 0.13773533 0.07518798 0.0677798  0.03547022
 0.07235123 0.08426424 0.08644256 0.08771646 0.08399414 0.0871331
 0.08951817 0.08656948 0.09474455 0.09094674 0.09674065 0.1008758
 0.09923679 0.10065756 0.05009524 0.05095238 0.05266667 0.05247619
 0.05171428 0.         0.         0.         0.         0.
 0.         0.         0.         0.         0.         0.
 0.         0.         0.         0.         0.         0.
 0.         0.         0.         0.         0.         0.
 0.         0.         0.         0.         0.         0.
 0.         0.         0.         0.         0.         0.
 0.         0.         0.         0.         0.         0.
 0.         1.        ]

2019-09-26 13:32:14,869 - INFO : Cluster center 3 : 
[9.93352860e-01 7.64488861e-01 4.54758397e-01 2.47735962e-01
 2.39319342e-01 1.93086531e-01 1.75141799e-01 2.01423271e-01
 2.03823834e-01 2.02532830e-01 2.21035482e-01 2.06782033e-01
 1.97323954e-01 2.36043015e-01 2.23742465e-01 2.38788940e-01
 2.74162223e-01 2.44462302e-01 2.62718564e-01 2.73520311e-01
 2.71886269e-01 2.81787037e-01 2.67729059e-01 2.58754277e-01
 2.55563302e-01 2.56752786e-01 2.43589731e-01 2.57289830e-01
 2.57231734e-01 2.40561705e-01 2.52755900e-01 2.75502693e-01
 2.36124585e-01 2.54170138e-01 2.47490283e-01 2.43610783e-01
 2.68698666e-01 2.49690104e-01 2.60652550e-01 2.87174986e-01
 2.85027106e-01 3.01368114e-01 2.81639290e-01 2.92495430e-01
 2.92826732e-01 3.06462287e-01 3.11299043e-01 3.18186606e-01
 3.12248577e-01 3.30080263e-01 2.84914438e-01 2.79259585e-01
 2.74503595e-01 2.66111398e-01 2.59796070e-01 2.07999288e-01
 2.22693799e-01 1.78170945e-01 1.95192174e-01 1.98293358e-01
 1.84224353e-01 2.07851159e-01 1.61986817e-01 1.98433600e-01
 1.98929828e-01 1.93716268e-01 2.19843557e-01 3.85494034e-01
 4.47409272e-01 3.61866564e-01 2.08013436e-01 1.90706688e-01
 1.80133606e-01 1.06917626e-01 1.26874705e-01 1.19856745e-01
 1.30569065e-01 1.24479824e-01 1.34699020e-01 1.16088704e-01
 1.06996734e-01 9.64398384e-03 3.29897560e-02 8.56687061e-02
 9.95702639e-02 4.99794818e-02 3.26973736e-02 2.39461489e-02
 2.02960752e-02 1.80598140e-02 1.59595106e-02 3.77196804e-02
 7.27134630e-02 1.12378223e-01 8.49367857e-02 6.56390697e-02
 4.33356240e-02 3.53153989e-02 2.79221907e-02 2.25872546e-02
 7.93150067e-03 7.50337988e-03 7.09779188e-03 6.08382151e-03
 6.62460551e-03 6.19648509e-03 6.06128871e-03 5.76836430e-03
 5.09238392e-03 5.72329871e-03 5.81342950e-03 1.20000000e-14
 1.20000000e-14 1.20000000e-14 1.20000000e-14 1.20000000e-14
 1.20000000e-14 1.20000000e-14 1.20000000e-14 1.20000000e-14
 1.20000000e-14 1.20000000e-14 1.20000000e-14 1.20000000e-14
 1.20000000e-14 1.20000000e-14 1.20000000e-14 1.20000000e-14
 1.20000000e-14 1.20000000e-14 1.20000000e-14 1.20000000e-14
 1.20000000e-14 1.20000000e-14 1.20000000e-14 1.20000000e-14
 1.20000000e-14 1.20000000e-14 1.20000000e-14 1.20000000e-14
 1.20000000e-14 1.20000000e-14 1.20000000e-14 1.20000000e-14
 1.20000000e-14 1.20000000e-14 1.20000000e-14 1.20000000e-14
 1.20000000e-14 1.20000000e-14 1.20000000e-14 1.20000000e-14
 1.20000000e-14 1.20000000e-14 1.20000000e-14 1.20000000e-14
 1.20000000e-14 1.20000000e-14 1.20000000e-14 1.20000000e-14
 1.20000000e-14 1.20000000e-14 1.20000000e-14 1.20000000e-14
 1.20000000e-14 1.20000000e-14 1.20000000e-14 1.20000000e-14
 1.20000000e-14 1.20000000e-14 1.20000000e-14 1.20000000e-14
 1.20000000e-14 1.20000000e-14 1.20000000e-14 1.20000000e-14
 1.20000000e-14 1.20000000e-14 1.20000000e-14 1.20000000e-14
 1.20000000e-14 1.20000000e-14 1.20000000e-14 1.20000000e-14
 1.20000000e-14 1.20000000e-14 1.20000000e-14 1.00000000e+00]

2019-09-26 13:32:15,210 - INFO : Cluster center 4 : 
[9.37424848e-01 9.08927373e-01 7.63689516e-01 5.57214629e-01
 3.80488379e-01 2.94543175e-01 2.38452704e-01 1.85448427e-01
 1.78981239e-01 1.37341538e-01 1.05235592e-01 1.13705717e-01
 9.45788143e-02 1.07718489e-01 1.03095475e-01 1.07858029e-01
 1.24067405e-01 1.20799617e-01 1.28787332e-01 1.39097160e-01
 1.28919661e-01 1.35302717e-01 1.39469407e-01 1.31959898e-01
 1.41961481e-01 1.15314373e-01 1.30728062e-01 1.19266917e-01
 1.15910373e-01 1.19940554e-01 9.47572717e-02 1.08228692e-01
 1.03769690e-01 9.78073943e-02 1.07025787e-01 1.12391085e-01
 9.56362689e-02 1.08179013e-01 1.26873715e-01 1.27210640e-01
 1.35053652e-01 1.49868959e-01 1.31288042e-01 1.42339127e-01
 1.30789631e-01 1.20617328e-01 1.27891919e-01 6.41674441e-02
 1.18330122e-01 1.20203126e-01 1.09575021e-01 1.22360007e-01
 1.12179625e-01 1.10983346e-01 1.06545103e-01 9.73497468e-02
 9.36497280e-02 7.90471637e-02 9.07099216e-02 1.02079094e-01
 1.03363653e-01 1.03635977e-01 8.13347865e-02 1.26041719e-01
 1.50636327e-01 1.56818678e-01 1.58591021e-01 1.15067509e-01
 1.03024285e-01 1.02326081e-01 1.00679175e-01 1.04681961e-01
 1.03289369e-01 1.04331459e-01 1.18511398e-01 1.16770595e-01
 1.15972973e-01 9.51144559e-02 9.94384719e-02 1.59177913e-01
 3.02270216e-01 3.19093805e-01 3.62408357e-01 4.61548818e-01
 4.64523546e-01 4.75667850e-01 4.01451634e-01 2.55429909e-01
 1.53075053e-01 1.18294097e-01 9.93009791e-02 1.01705040e-01
 1.34924099e-01 1.12576420e-01 8.80139644e-02 6.60062912e-02
 4.73368506e-02 4.60702570e-02 4.34093674e-02 3.00614221e-02
 6.31922318e-02 1.05188351e-01 8.07759360e-02 4.82835269e-02
 3.97207021e-02 2.98720936e-02 2.06667582e-02 1.23882656e-02
 1.01973547e-02 1.00139315e-02 1.09716873e-02 8.43611525e-03
 1.08388058e-02 1.19600619e-02 1.39356073e-02 1.39890015e-02
 1.28143521e-02 1.32948905e-02 1.46831125e-02 1.55374027e-02
 1.83672375e-02 4.44444444e-15 4.44444444e-15 4.44444444e-15
 4.44444444e-15 4.44444444e-15 4.44444444e-15 4.44444444e-15
 4.44444444e-15 4.44444444e-15 4.44444444e-15 4.44444444e-15
 4.44444444e-15 4.44444444e-15 4.44444444e-15 4.44444444e-15
 4.44444444e-15 4.44444444e-15 4.44444444e-15 4.44444444e-15
 4.44444444e-15 4.44444444e-15 4.44444444e-15 4.44444444e-15
 4.44444444e-15 4.44444444e-15 4.44444444e-15 4.44444444e-15
 4.44444444e-15 4.44444444e-15 4.44444444e-15 4.44444444e-15
 4.44444444e-15 4.44444444e-15 4.44444444e-15 4.44444444e-15
 4.44444444e-15 4.44444444e-15 4.44444444e-15 4.44444444e-15
 4.44444444e-15 4.44444444e-15 4.44444444e-15 4.44444444e-15
 4.44444444e-15 4.44444444e-15 4.44444444e-15 4.44444444e-15
 4.44444444e-15 4.44444444e-15 4.44444444e-15 4.44444444e-15
 4.44444444e-15 4.44444444e-15 4.44444444e-15 4.44444444e-15
 4.44444444e-15 4.44444444e-15 4.44444444e-15 4.44444444e-15
 4.44444444e-15 4.44444444e-15 4.44444444e-15 4.44444444e-15
 4.44444444e-15 4.44444444e-15 4.44444444e-15 1.00000000e+00]

2019-09-26 13:32:15,562 - INFO : Cluster center 5 : 
[ 9.95055529e-01  7.46676090e-01  4.12815489e-01  2.56990399e-01
  2.17434062e-01  2.29754202e-01  2.41068841e-01  2.39177386e-01
  2.46341545e-01  2.46774391e-01  2.48544252e-01  2.55234349e-01
  2.53582476e-01  2.54039062e-01  2.54371265e-01  2.53439466e-01
  2.52534772e-01  2.63211683e-01  2.58466251e-01  2.62070441e-01
  2.67434392e-01  2.73677760e-01  2.73015123e-01  2.75922742e-01
  2.72777257e-01  2.70720290e-01  2.76027674e-01  2.78081447e-01
  2.83533504e-01  2.67754338e-01  2.71898637e-01  2.69681440e-01
  2.65048187e-01  2.78677205e-01  2.69361046e-01  2.67382305e-01
  2.62986839e-01  2.61732115e-01  2.59408441e-01  2.58842033e-01
  2.56237279e-01  2.54784251e-01  2.55817546e-01  2.59783111e-01
  2.54046839e-01  2.51130731e-01  2.54585177e-01  2.54120174e-01
  2.51664937e-01  2.47515406e-01  2.45343902e-01  2.45939080e-01
  2.52403846e-01  2.50876882e-01  2.37571876e-01  2.45005098e-01
  2.39360196e-01  2.50253572e-01  2.46728395e-01  2.41573538e-01
  2.57902315e-01  2.52403106e-01  2.55458455e-01  2.65154226e-01
  2.65669771e-01  2.74099800e-01  2.62952393e-01  2.52670552e-01
  2.42681869e-01  2.35150672e-01  2.28577108e-01  2.35344864e-01
  2.29753657e-01  2.34614733e-01  2.34028960e-01  2.30137904e-01
  2.20418009e-01  2.11789945e-01  2.35627883e-01  2.83669084e-01
  3.07485631e-01  2.90659348e-01  2.50053517e-01  2.33917173e-01
  2.39850031e-01  2.86254188e-01  2.67159071e-01  2.01575928e-01
  2.20814639e-01  2.61528405e-01  2.46020220e-01  2.44888609e-01
  2.72259815e-01  2.63522327e-01  2.35681499e-01  1.94977088e-01
  1.99422194e-01  2.46361510e-01  4.47765305e-01  5.89210900e-01
  6.21794435e-01  4.55017170e-01  3.25604269e-01  2.83450128e-01
  2.39397128e-01  2.32382456e-01  2.16336000e-01  2.03894371e-01
  2.03599818e-01  1.95987490e-01  1.88746194e-01  1.92564983e-01
  1.94263212e-01  2.02828545e-01  2.01704104e-01  1.47901971e-01
  2.03095993e-01  2.22974468e-01  1.13650170e-01  8.32395960e-02
  7.09117141e-02  9.28763718e-02  8.76497545e-02  4.78468984e-02
  4.31326018e-02  2.25719606e-02  4.60416918e-02  5.36226955e-02
  5.50089045e-02  5.58195629e-02  5.34508174e-02  5.54483343e-02
  5.69661070e-02  5.50896661e-02  6.02919866e-02  5.78751998e-02
  6.15622293e-02  6.41936904e-02  6.31506849e-02  6.40548088e-02
  3.18787884e-02  3.24242413e-02  3.35151526e-02  3.33939384e-02
  3.29090899e-02 -2.27272727e-14 -2.27272727e-14 -2.27272727e-14
 -2.27272727e-14 -2.27272727e-14 -2.27272727e-14 -2.27272727e-14
 -2.27272727e-14 -2.27272727e-14 -2.27272727e-14 -2.27272727e-14
 -2.27272727e-14 -2.27272727e-14 -2.27272727e-14 -2.27272727e-14
 -2.27272727e-14 -2.27272727e-14 -2.27272727e-14 -2.27272727e-14
 -2.27272727e-14 -2.27272727e-14 -2.27272727e-14 -2.27272727e-14
 -2.27272727e-14 -2.27272727e-14 -2.27272727e-14 -2.27272727e-14
 -2.27272727e-14 -2.27272727e-14 -2.27272727e-14 -2.27272727e-14
 -2.27272727e-14 -2.27272727e-14 -2.27272727e-14 -2.27272727e-14
 -2.27272727e-14 -2.27272727e-14 -2.27272727e-14 -2.27272727e-14
 -2.27272727e-14 -2.27272727e-14 -2.27272727e-14  1.00000000e+00]

2019-09-26 13:32:15,836 - INFO : Cluster center 6 : 
[ 9.79149716e-01  8.51229043e-01  6.20170353e-01  4.04795440e-01
  3.42568672e-01  2.55506013e-01  1.95038939e-01  1.44830140e-01
  1.28258716e-01  1.12651506e-01  1.04471408e-01  1.12579673e-01
  9.13864358e-02  1.00647872e-01  1.11773494e-01  1.11537552e-01
  1.23348779e-01  1.11828780e-01  1.29105906e-01  1.28319852e-01
  1.29546463e-01  1.28502834e-01  1.24864861e-01  1.34765714e-01
  1.34834613e-01  1.35820036e-01  1.34603321e-01  1.49978628e-01
  1.52810584e-01  1.51834208e-01  1.58137513e-01  1.52108045e-01
  1.64509881e-01  1.50858229e-01  1.34976895e-01  1.49679784e-01
  1.45208218e-01  1.43205642e-01  1.34254492e-01  1.43379665e-01
  1.34546702e-01  1.51854515e-01  1.46513611e-01  1.43587658e-01
  1.60303103e-01  1.50975073e-01  1.39544859e-01  1.40680456e-01
  1.61619648e-01  1.59448295e-01  1.47011092e-01  1.79613083e-01
  1.51135307e-01  1.69689087e-01  1.48325707e-01  1.38966852e-01
  1.38491107e-01  1.27386176e-01  1.34380049e-01  1.15350823e-01
  9.69308810e-02  1.04490581e-01  8.49018132e-02  1.18209887e-01
  1.09098773e-01  1.36191749e-01  1.16112824e-01  5.58330888e-02
  1.06427819e-01  9.73542204e-02  1.88898917e-01  3.82292076e-01
  5.14885671e-01  4.07673714e-01  2.61106023e-01  1.80705448e-01
  1.89441151e-01  1.56077020e-01  8.55147011e-02  6.72157378e-02
  6.84975673e-02  6.69137223e-02  7.86880524e-02  1.15870985e-01
  1.16827563e-01  4.35173532e-02  3.22609941e-02  2.14725654e-02
  1.74692008e-02  1.32368180e-02  1.28708798e-02  2.53336148e-02
  4.29058456e-02  6.56359343e-02  4.92694353e-02  3.73204400e-02
  2.53567819e-02  1.96196660e-02  1.84489505e-02  3.00614221e-02
  6.31922318e-02  1.05188351e-01  8.07759360e-02  4.82835269e-02
  3.97207021e-02  2.98720936e-02  2.06667582e-02  1.23882656e-02
  1.01973547e-02  1.00139315e-02  1.09716873e-02  8.43611525e-03
  1.08388058e-02  1.19600619e-02  1.39356073e-02  1.39890015e-02
  1.28143521e-02  1.32948905e-02  1.46831125e-02  1.55374027e-02
  1.83672375e-02 -6.66666667e-15 -6.66666667e-15 -6.66666667e-15
 -6.66666667e-15 -6.66666667e-15 -6.66666667e-15 -6.66666667e-15
 -6.66666667e-15 -6.66666667e-15 -6.66666667e-15 -6.66666667e-15
 -6.66666667e-15 -6.66666667e-15 -6.66666667e-15 -6.66666667e-15
 -6.66666667e-15 -6.66666667e-15 -6.66666667e-15 -6.66666667e-15
 -6.66666667e-15 -6.66666667e-15 -6.66666667e-15 -6.66666667e-15
 -6.66666667e-15 -6.66666667e-15 -6.66666667e-15 -6.66666667e-15
 -6.66666667e-15 -6.66666667e-15 -6.66666667e-15 -6.66666667e-15
 -6.66666667e-15 -6.66666667e-15 -6.66666667e-15 -6.66666667e-15
 -6.66666667e-15 -6.66666667e-15 -6.66666667e-15 -6.66666667e-15
 -6.66666667e-15 -6.66666667e-15 -6.66666667e-15 -6.66666667e-15
 -6.66666667e-15 -6.66666667e-15 -6.66666667e-15 -6.66666667e-15
 -6.66666667e-15 -6.66666667e-15 -6.66666667e-15 -6.66666667e-15
 -6.66666667e-15 -6.66666667e-15 -6.66666667e-15 -6.66666667e-15
 -6.66666667e-15 -6.66666667e-15 -6.66666667e-15 -6.66666667e-15
 -6.66666667e-15 -6.66666667e-15 -6.66666667e-15 -6.66666667e-15
 -6.66666667e-15 -6.66666667e-15 -6.66666667e-15  1.00000000e+00]

2019-09-26 13:32:16,390 - INFO : Cluster center 7 : 
[0.95081432 0.83606927 0.48238384 0.26889955 0.19043555 0.14597911
 0.09987237 0.07196312 0.05935251 0.05178102 0.05459371 0.04850167
 0.0499897  0.05592071 0.06511275 0.07945704 0.09136967 0.09620368
 0.10095763 0.11189695 0.12026209 0.11973715 0.12448113 0.1420684
 0.14625632 0.16062462 0.1616672  0.18078452 0.18530151 0.18853304
 0.20609998 0.20211719 0.20126483 0.19573371 0.18902809 0.19276894
 0.17628089 0.16417281 0.15993035 0.15595559 0.15717111 0.1496265
 0.13832762 0.13275419 0.12778443 0.12105605 0.11731747 0.12806632
 0.12288478 0.12276392 0.11651421 0.11454057 0.11041271 0.1100499
 0.11171351 0.104069   0.09985163 0.09632482 0.09023357 0.08678972
 0.08950869 0.08550328 0.09302342 0.11775889 0.12445158 0.16562437
 0.15889415 0.12065885 0.11362581 0.10767349 0.10444896 0.09905804
 0.08958136 0.08353062 0.08750742 0.08536473 0.08539456 0.08846473
 0.08949125 0.07941402 0.07218714 0.06777177 0.09645761 0.14877061
 0.15476699 0.11839973 0.09174559 0.07472368 0.06329388 0.05031029
 0.05353288 0.07562334 0.10588349 0.13869263 0.1031827  0.08121789
 0.06356458 0.05403686 0.05010309 0.07123385 0.1199104  0.21102853
 0.23809075 0.30677336 0.40220503 0.44520813 0.38423214 0.13497011
 0.09289862 0.06791092 0.06050246 0.04155487 0.04119935 0.04515825
 0.04517542 0.0458423  0.04327131 0.04345135 0.05074467 0.04965682
 0.05246742 0.0239726  0.02728311 0.02568493 0.02477169 0.03047945
 0.         0.         0.         0.         0.         0.
 0.         0.         0.         0.         0.         0.
 0.         0.         0.         0.         0.         0.
 0.         0.         0.         0.         0.         0.
 0.         0.         0.         0.         0.         0.
 0.         0.         0.         0.         0.         0.
 0.         0.         0.         0.         0.         0.
 0.         0.         0.         0.         0.         0.
 0.         0.         0.         0.         0.         0.
 0.         0.         0.         0.         0.         0.
 0.         1.        ]

2019-09-26 13:32:16,851 - INFO : Cluster center 8 : 
[ 9.88921434e-01  6.77888468e-01  4.38532059e-01  2.06805999e-01
  1.42173241e-01  1.44693180e-01  1.40454520e-01  1.51253673e-01
  1.65155599e-01  1.42835243e-01  1.75873222e-01  1.47717021e-01
  1.28653229e-01  1.83650717e-01  1.49215068e-01  1.76859460e-01
  1.98777898e-01  1.74580559e-01  1.94739967e-01  2.06142220e-01
  2.11119579e-01  2.05985366e-01  2.06024413e-01  2.13802058e-01
  2.17651339e-01  2.28434697e-01  2.04296045e-01  2.36297136e-01
  2.33633375e-01  2.15750982e-01  2.31674207e-01  2.46483226e-01
  2.23390635e-01  2.40265221e-01  2.19231142e-01  2.30367077e-01
  2.64112747e-01  2.48933456e-01  2.60970249e-01  3.07374515e-01
  3.09295269e-01  3.35063471e-01  3.15750122e-01  3.23942692e-01
  3.09460036e-01  3.06150018e-01  3.01743357e-01  3.15789562e-01
  2.91958116e-01  3.09576379e-01  2.77571010e-01  2.45410639e-01
  2.66086847e-01  2.53199955e-01  2.35707062e-01  2.09151732e-01
  2.29242142e-01  2.06009143e-01  2.07608518e-01  1.99209133e-01
  2.03996953e-01  2.11838473e-01  2.02137910e-01  2.43447270e-01
  2.67009929e-01  3.22860447e-01  1.96988984e-01  1.32772433e-01
  1.15685781e-01  1.05494530e-01  9.29303517e-02  8.60879719e-02
  7.65336367e-02  6.26844975e-02  6.29429941e-02  5.93138635e-02
  5.77324529e-02  5.96849310e-02  5.54481298e-02  3.76322530e-02
  2.68794118e-02  1.60733064e-02  5.49829267e-02  1.42781177e-01
  1.65950440e-01  8.32991364e-02  5.44956227e-02  3.99102482e-02
  3.38267920e-02  3.00996900e-02  2.65991843e-02  6.28661339e-02
  1.21189105e-01  1.87297039e-01  1.41561309e-01  1.09398449e-01
  7.22260401e-02  5.88589981e-02  4.65369845e-02  3.76454244e-02
  1.32191678e-02  1.25056331e-02  1.18296531e-02  1.01397025e-02
  1.10410092e-02  1.03274751e-02  1.01021479e-02  9.61394049e-03
  8.48730654e-03  9.53883119e-03  9.68904917e-03 -1.66666667e-14
 -1.66666667e-14 -1.66666667e-14 -1.66666667e-14 -1.66666667e-14
 -1.66666667e-14 -1.66666667e-14 -1.66666667e-14 -1.66666667e-14
 -1.66666667e-14 -1.66666667e-14 -1.66666667e-14 -1.66666667e-14
 -1.66666667e-14 -1.66666667e-14 -1.66666667e-14 -1.66666667e-14
 -1.66666667e-14 -1.66666667e-14 -1.66666667e-14 -1.66666667e-14
 -1.66666667e-14 -1.66666667e-14 -1.66666667e-14 -1.66666667e-14
 -1.66666667e-14 -1.66666667e-14 -1.66666667e-14 -1.66666667e-14
 -1.66666667e-14 -1.66666667e-14 -1.66666667e-14 -1.66666667e-14
 -1.66666667e-14 -1.66666667e-14 -1.66666667e-14 -1.66666667e-14
 -1.66666667e-14 -1.66666667e-14 -1.66666667e-14 -1.66666667e-14
 -1.66666667e-14 -1.66666667e-14 -1.66666667e-14 -1.66666667e-14
 -1.66666667e-14 -1.66666667e-14 -1.66666667e-14 -1.66666667e-14
 -1.66666667e-14 -1.66666667e-14 -1.66666667e-14 -1.66666667e-14
 -1.66666667e-14 -1.66666667e-14 -1.66666667e-14 -1.66666667e-14
 -1.66666667e-14 -1.66666667e-14 -1.66666667e-14 -1.66666667e-14
 -1.66666667e-14 -1.66666667e-14 -1.66666667e-14 -1.66666667e-14
 -1.66666667e-14 -1.66666667e-14 -1.66666667e-14 -1.66666667e-14
 -1.66666667e-14 -1.66666667e-14 -1.66666667e-14 -1.66666667e-14
 -1.66666667e-14 -1.66666667e-14 -1.66666667e-14  1.00000000e+00]

2019-09-26 13:32:17,168 - INFO : Cluster center 9 : 
[9.75721083e-01 6.59088127e-01 3.26545737e-01 1.70039286e-01
 1.43938598e-01 2.16897307e-01 2.73417940e-01 2.87063655e-01
 3.03182171e-01 3.09288078e-01 3.14798960e-01 3.21243816e-01
 3.08186935e-01 3.20848407e-01 3.22366380e-01 3.19921825e-01
 3.18501151e-01 3.23821462e-01 3.23934237e-01 3.21200860e-01
 3.28793066e-01 3.33081548e-01 3.35460233e-01 3.30484119e-01
 3.35061499e-01 3.43947176e-01 3.35230145e-01 3.43046619e-01
 3.37783696e-01 3.35293212e-01 3.29302656e-01 3.18128469e-01
 3.01870468e-01 3.09534622e-01 2.81937041e-01 2.79477508e-01
 2.67939313e-01 2.68810876e-01 2.68143231e-01 2.68915549e-01
 2.75076162e-01 2.81636961e-01 2.99832694e-01 3.08096566e-01
 3.12492504e-01 3.00624683e-01 3.19728805e-01 3.21195833e-01
 3.24086672e-01 3.24529034e-01 3.23101157e-01 3.25735611e-01
 3.36431889e-01 3.31636797e-01 3.26432643e-01 3.27916801e-01
 3.25060068e-01 3.37816051e-01 3.33780165e-01 3.28259661e-01
 3.39766249e-01 3.40806781e-01 3.49011305e-01 3.59670455e-01
 3.56048565e-01 3.43074100e-01 3.34075841e-01 3.19738316e-01
 3.31003788e-01 3.16633993e-01 3.07558800e-01 3.08152468e-01
 3.09478977e-01 3.20841125e-01 3.14196416e-01 3.14307427e-01
 3.03312117e-01 2.89946249e-01 3.14637703e-01 3.58347202e-01
 3.81634605e-01 3.60264774e-01 3.13287976e-01 3.04877131e-01
 3.28680876e-01 3.65767662e-01 3.37638231e-01 2.86330855e-01
 3.07302078e-01 3.46559340e-01 3.32947157e-01 3.28590513e-01
 3.53677196e-01 3.49370745e-01 3.33244310e-01 3.33981075e-01
 3.74919499e-01 3.86041503e-01 4.55070212e-01 4.90698727e-01
 4.61446627e-01 3.92927099e-01 3.74945438e-01 3.80703646e-01
 3.33048461e-01 3.24651980e-01 2.96901658e-01 2.71189787e-01
 2.67256181e-01 2.65812668e-01 2.52384967e-01 2.55291356e-01
 2.55803826e-01 2.62932872e-01 2.54857332e-01 2.08244489e-01
 2.59454038e-01 2.76250736e-01 2.19246008e-01 1.82886370e-01
 2.45665391e-01 4.56512735e-01 3.41972110e-01 1.66332371e-01
 7.98184777e-02 2.25719606e-02 1.05780182e-01 1.65663345e-01
 1.80434948e-01 1.95622496e-01 1.94245268e-01 2.02439717e-01
 2.03461742e-01 2.06047088e-01 2.04804597e-01 2.02635689e-01
 2.00125776e-01 2.08954180e-01 2.08902681e-01 2.02122607e-01
 1.67219934e-01 1.71979305e-01 1.72078699e-01 1.71213857e-01
 1.70729009e-01 1.35341146e-01 1.27904816e-01 1.29887830e-01
 2.72727273e-15 2.72727273e-15 2.72727273e-15 2.72727273e-15
 2.72727273e-15 2.72727273e-15 2.72727273e-15 2.72727273e-15
 2.72727273e-15 2.72727273e-15 2.72727273e-15 2.72727273e-15
 2.72727273e-15 2.72727273e-15 2.72727273e-15 2.72727273e-15
 2.72727273e-15 2.72727273e-15 2.72727273e-15 2.72727273e-15
 2.72727273e-15 2.72727273e-15 2.72727273e-15 2.72727273e-15
 2.72727273e-15 2.72727273e-15 2.72727273e-15 2.72727273e-15
 2.72727273e-15 2.72727273e-15 2.72727273e-15 2.72727273e-15
 2.72727273e-15 2.72727273e-15 2.72727273e-15 2.72727273e-15
 2.72727273e-15 2.72727273e-15 2.72727273e-15 1.00000000e+00]

2019-09-26 13:32:17,694 - INFO : Cluster center 10 : 
[9.82148095e-01 7.32540081e-01 3.46660143e-01 2.89244754e-01
 2.12923502e-01 1.29676832e-01 1.02469334e-01 1.01091547e-01
 8.34908291e-02 8.66320567e-02 8.73980646e-02 8.78055354e-02
 1.02181218e-01 8.43580070e-02 9.76155485e-02 9.74658420e-02
 1.03817226e-01 1.10607129e-01 1.12127863e-01 1.28543786e-01
 1.24927803e-01 1.13805554e-01 1.27032260e-01 1.24034004e-01
 1.37464700e-01 1.45367530e-01 1.52504993e-01 1.70204172e-01
 1.64824396e-01 1.65006902e-01 1.80265985e-01 1.75925689e-01
 1.93612610e-01 1.87585822e-01 1.94183471e-01 1.75932730e-01
 1.46102719e-01 1.51386318e-01 1.24540909e-01 1.12587778e-01
 1.21776639e-01 9.76831858e-02 1.15958035e-01 9.50738790e-02
 8.66737966e-02 8.86316924e-02 8.40255633e-02 9.83087309e-02
 8.68164174e-02 9.76874682e-02 9.65709472e-02 1.13620304e-01
 1.13190607e-01 8.78702385e-02 9.93124479e-02 1.19707948e-01
 1.03869141e-01 1.22353155e-01 9.62249640e-02 1.00535381e-01
 1.10810370e-01 1.08940559e-01 1.10644390e-01 1.02520310e-01
 1.24949822e-01 1.20013797e-01 1.26342758e-01 1.28988800e-01
 1.12427931e-01 1.02831970e-01 1.04163507e-01 1.25549021e-01
 1.27133371e-01 1.37861962e-01 1.70645794e-01 1.89581725e-01
 1.88066571e-01 1.90444186e-01 1.94696383e-01 1.90608967e-01
 2.03543486e-01 2.24612328e-01 2.30941220e-01 2.26954000e-01
 1.77120483e-01 1.28657524e-01 9.96981219e-02 9.73227070e-02
 8.11315556e-02 7.08630229e-02 5.75441193e-02 6.17658680e-02
 6.76927461e-02 1.39716267e-01 3.00958424e-01 4.14106195e-01
 4.64081987e-01 5.49415485e-01 4.21222051e-01 1.89586525e-01
 2.32714504e-01 1.78976960e-01 1.46447562e-01 1.56216847e-01
 1.82562338e-01 1.79149228e-01 1.70847279e-01 1.10519744e-01
 9.14374730e-02 8.47813926e-02 9.83228694e-02 3.88042340e-02
 4.94986908e-02 5.23244611e-02 1.32868873e-02 1.34830304e-02
 1.27268569e-02 1.27798091e-02 1.49249031e-02 1.46049480e-02
 1.54315943e-02 7.05076535e-03 8.02444272e-03 7.55439173e-03
 7.28579085e-03 8.96454471e-03 1.05882353e-14 1.05882353e-14
 1.05882353e-14 1.05882353e-14 1.05882353e-14 1.05882353e-14
 1.05882353e-14 1.05882353e-14 1.05882353e-14 1.05882353e-14
 1.05882353e-14 1.05882353e-14 1.05882353e-14 1.05882353e-14
 1.05882353e-14 1.05882353e-14 1.05882353e-14 1.05882353e-14
 1.05882353e-14 1.05882353e-14 1.05882353e-14 1.05882353e-14
 1.05882353e-14 1.05882353e-14 1.05882353e-14 1.05882353e-14
 1.05882353e-14 1.05882353e-14 1.05882353e-14 1.05882353e-14
 1.05882353e-14 1.05882353e-14 1.05882353e-14 1.05882353e-14
 1.05882353e-14 1.05882353e-14 1.05882353e-14 1.05882353e-14
 1.05882353e-14 1.05882353e-14 1.05882353e-14 1.05882353e-14
 1.05882353e-14 1.05882353e-14 1.05882353e-14 1.05882353e-14
 1.05882353e-14 1.05882353e-14 1.05882353e-14 1.05882353e-14
 1.05882353e-14 1.05882353e-14 1.05882353e-14 1.05882353e-14
 1.05882353e-14 1.05882353e-14 1.05882353e-14 1.05882353e-14
 1.05882353e-14 1.05882353e-14 1.05882353e-14 1.00000000e+00]

2019-09-26 13:32:18,183 - INFO : Cluster center 11 : 
[9.90803564e-01 6.01779753e-01 2.48900720e-01 2.43630628e-01
 1.93027982e-01 1.31044553e-01 1.23973580e-01 1.12412236e-01
 9.46639351e-02 1.16249049e-01 1.02319576e-01 9.51504118e-02
 1.05594509e-01 1.13775377e-01 1.21473145e-01 1.06203815e-01
 1.14250437e-01 1.25127335e-01 1.31987629e-01 1.45653076e-01
 1.26861833e-01 1.22000315e-01 1.41401902e-01 1.27703583e-01
 1.28979604e-01 1.49545160e-01 1.53222035e-01 1.71889180e-01
 1.43508056e-01 1.57058029e-01 1.54501256e-01 1.46622524e-01
 1.54865843e-01 1.68689593e-01 1.57764302e-01 1.37944890e-01
 1.33863555e-01 1.42228228e-01 1.06261559e-01 8.96863700e-02
 1.06139730e-01 1.09354222e-01 8.83841226e-02 1.01933152e-01
 1.12798043e-01 1.08163837e-01 1.14038185e-01 1.26604932e-01
 1.14173706e-01 1.16301442e-01 1.04006558e-01 1.33190528e-01
 1.37309796e-01 1.11678141e-01 1.36237326e-01 1.32420019e-01
 1.01255285e-01 1.10777353e-01 1.09471142e-01 1.06048842e-01
 1.10039830e-01 1.06906277e-01 1.05179628e-01 1.11412011e-01
 1.35554437e-01 1.18687557e-01 1.19343551e-01 1.23311043e-01
 1.19554380e-01 1.07231933e-01 1.17033200e-01 1.24143412e-01
 1.74442790e-01 1.92991536e-01 1.92517647e-01 1.58866207e-01
 1.60255990e-01 1.38909544e-01 1.00298137e-01 1.12516581e-01
 1.22652322e-01 1.46961924e-01 1.19837846e-01 1.42525419e-01
 1.31611752e-01 8.88494001e-02 7.74034239e-02 8.13884831e-02
 1.13849517e-01 8.29499456e-02 9.21490265e-02 1.67680539e-01
 2.36711367e-01 4.07071753e-01 5.93876991e-01 6.33934567e-01
 4.14434028e-01 3.22531961e-01 3.31585838e-01 1.58868680e-01
 1.70234549e-01 1.68595359e-01 1.32304951e-01 1.27354160e-01
 1.35283261e-01 1.50019389e-01 1.53555763e-01 9.81704095e-02
 1.06136734e-01 9.05540776e-02 1.01436558e-01 7.20776306e-02
 7.54165828e-02 8.59876065e-02 6.84476012e-03 6.94580354e-03
 6.55625964e-03 6.58353802e-03 7.68858646e-03 7.52376110e-03
 7.94960920e-03 3.63221245e-03 4.13380383e-03 3.89165634e-03
 3.75328619e-03 4.61809879e-03 5.15151515e-15 5.15151515e-15
 5.15151515e-15 5.15151515e-15 5.15151515e-15 5.15151515e-15
 5.15151515e-15 5.15151515e-15 5.15151515e-15 5.15151515e-15
 5.15151515e-15 5.15151515e-15 5.15151515e-15 5.15151515e-15
 5.15151515e-15 5.15151515e-15 5.15151515e-15 5.15151515e-15
 5.15151515e-15 5.15151515e-15 5.15151515e-15 5.15151515e-15
 5.15151515e-15 5.15151515e-15 5.15151515e-15 5.15151515e-15
 5.15151515e-15 5.15151515e-15 5.15151515e-15 5.15151515e-15
 5.15151515e-15 5.15151515e-15 5.15151515e-15 5.15151515e-15
 5.15151515e-15 5.15151515e-15 5.15151515e-15 5.15151515e-15
 5.15151515e-15 5.15151515e-15 5.15151515e-15 5.15151515e-15
 5.15151515e-15 5.15151515e-15 5.15151515e-15 5.15151515e-15
 5.15151515e-15 5.15151515e-15 5.15151515e-15 5.15151515e-15
 5.15151515e-15 5.15151515e-15 5.15151515e-15 5.15151515e-15
 5.15151515e-15 5.15151515e-15 5.15151515e-15 5.15151515e-15
 5.15151515e-15 5.15151515e-15 5.15151515e-15 1.00000000e+00]

2019-09-26 13:32:18,996 - INFO : Cluster center 12 : 
[ 9.95055529e-01  7.41679335e-01  3.44981405e-01  1.99580581e-01
  1.94856240e-01  2.69992561e-01  2.84133793e-01  2.82170872e-01
  2.94308037e-01  2.89282419e-01  2.94026698e-01  3.00231337e-01
  2.85245010e-01  2.89654999e-01  2.92836570e-01  2.75595899e-01
  2.71663181e-01  2.75991986e-01  2.71170174e-01  2.65188772e-01
  2.69310698e-01  2.61146419e-01  2.67731367e-01  2.65305573e-01
  2.69563537e-01  2.69781154e-01  2.54759734e-01  2.70646358e-01
  2.75546406e-01  2.63092247e-01  2.53692645e-01  2.42669192e-01
  2.46571110e-01  2.68295392e-01  2.79290172e-01  2.97289657e-01
  2.94092449e-01  3.01074117e-01  3.15521993e-01  3.19350680e-01
  3.10124928e-01  3.01779809e-01  2.96401568e-01  2.90398343e-01
  2.78393445e-01  2.76928824e-01  2.73210263e-01  2.91088432e-01
  2.91740705e-01  2.70183199e-01  2.77944754e-01  2.66567652e-01
  2.68772208e-01  2.76843797e-01  2.62603578e-01  2.75219272e-01
  2.63541106e-01  2.63990053e-01  2.78923269e-01  2.61111041e-01
  2.87996353e-01  2.92611961e-01  2.95547174e-01  3.08421915e-01
  2.93946995e-01  3.15422508e-01  2.86550479e-01  2.75547812e-01
  2.94965281e-01  3.13801071e-01  3.18504857e-01  3.35588866e-01
  3.36956295e-01  3.60076132e-01  4.16635505e-01  4.33157647e-01
  3.75816594e-01  3.12064763e-01  3.46561506e-01  3.53441761e-01
  3.57655245e-01  3.27854933e-01  2.74903463e-01  2.76481901e-01
  2.89274241e-01  3.50816704e-01  3.69434264e-01  3.05554025e-01
  4.49657390e-01  4.48701977e-01  2.58806749e-01  1.80855491e-01
  2.08916707e-01  1.98661192e-01  1.75098438e-01  1.68894632e-01
  1.99422194e-01  2.01372724e-01  2.68914177e-01  3.06029948e-01
  2.71820301e-01  2.03300773e-01  1.76147648e-01  1.80914338e-01
  1.52593611e-01  1.56343125e-01  1.40986680e-01  1.30891096e-01
  1.28940514e-01  1.21052178e-01  1.18778967e-01  1.20941728e-01
  1.21949946e-01  1.28583244e-01  1.22490718e-01  8.20748183e-02
  1.28574690e-01  1.49833186e-01  1.13650170e-01  8.32395960e-02
  7.09117141e-02  9.28763718e-02  8.76497545e-02  4.78468984e-02
  4.31326018e-02  2.25719606e-02  4.60416918e-02  5.36226955e-02
  5.50089045e-02  5.58195629e-02  5.34508174e-02  5.54483343e-02
  5.69661070e-02  5.50896661e-02  6.02919866e-02  5.78751998e-02
  6.15622293e-02  6.41936904e-02  6.31506849e-02  6.40548088e-02
  3.18787884e-02  3.24242413e-02  3.35151526e-02  3.33939384e-02
  3.29090899e-02 -1.00000000e-14 -1.00000000e-14 -1.00000000e-14
 -1.00000000e-14 -1.00000000e-14 -1.00000000e-14 -1.00000000e-14
 -1.00000000e-14 -1.00000000e-14 -1.00000000e-14 -1.00000000e-14
 -1.00000000e-14 -1.00000000e-14 -1.00000000e-14 -1.00000000e-14
 -1.00000000e-14 -1.00000000e-14 -1.00000000e-14 -1.00000000e-14
 -1.00000000e-14 -1.00000000e-14 -1.00000000e-14 -1.00000000e-14
 -1.00000000e-14 -1.00000000e-14 -1.00000000e-14 -1.00000000e-14
 -1.00000000e-14 -1.00000000e-14 -1.00000000e-14 -1.00000000e-14
 -1.00000000e-14 -1.00000000e-14 -1.00000000e-14 -1.00000000e-14
 -1.00000000e-14 -1.00000000e-14 -1.00000000e-14 -1.00000000e-14
 -1.00000000e-14 -1.00000000e-14 -1.00000000e-14  1.00000000e+00]

2019-09-26 13:32:19,613 - INFO : Cluster center 13 : 
[9.90803564e-01 6.98046239e-01 3.66147590e-01 2.67369670e-01
 1.86958934e-01 1.47255388e-01 1.26343600e-01 1.06036929e-01
 1.14643347e-01 1.09459352e-01 9.64651623e-02 1.03795589e-01
 9.76613998e-02 9.64904348e-02 1.04854245e-01 1.06570649e-01
 1.18505013e-01 1.20380835e-01 1.19502787e-01 1.28926689e-01
 1.36765940e-01 1.44462658e-01 1.57970380e-01 1.65465918e-01
 1.74258814e-01 1.84356353e-01 2.01218082e-01 2.23660127e-01
 2.41895857e-01 2.61738408e-01 2.83962255e-01 3.11678276e-01
 3.11110825e-01 3.27843261e-01 3.33461495e-01 3.28436317e-01
 3.20338256e-01 2.97522302e-01 2.70622812e-01 2.45139723e-01
 2.13189572e-01 1.93626081e-01 1.69336256e-01 1.59511609e-01
 1.46541265e-01 1.38558134e-01 1.29882488e-01 1.28662506e-01
 1.31092903e-01 1.33557386e-01 1.22305719e-01 1.23516898e-01
 1.24434705e-01 1.14789962e-01 1.20324671e-01 1.23901999e-01
 1.21959087e-01 1.20802784e-01 1.25659900e-01 1.21122884e-01
 1.26502412e-01 1.25752705e-01 1.21270699e-01 1.27059118e-01
 1.17246759e-01 1.32327968e-01 1.29320751e-01 1.20837382e-01
 1.15408557e-01 1.17338059e-01 1.07832132e-01 1.11416294e-01
 1.10541101e-01 1.20791259e-01 1.20438873e-01 1.09844927e-01
 1.08382641e-01 1.06820659e-01 1.05429241e-01 9.34277117e-02
 9.25577781e-02 9.54745525e-02 9.68925096e-02 9.12042507e-02
 9.17475677e-02 8.91584665e-02 8.76120126e-02 8.08596364e-02
 7.85723965e-02 6.81664331e-02 6.07838360e-02 6.47389397e-02
 6.73322623e-02 9.84598666e-02 1.61123522e-01 2.19017918e-01
 2.09000590e-01 1.52468653e-01 1.43433301e-01 1.63749036e-01
 1.66929967e-01 1.64740965e-01 1.69501127e-01 1.60174020e-01
 1.41008078e-01 1.20965183e-01 1.08554070e-01 6.05387985e-02
 5.25763861e-02 4.85445749e-02 4.74659707e-02 2.71230593e-02
 1.49596358e-02 1.56761189e-02 5.58060193e-02 1.18133712e-01
 2.60312398e-01 2.39292310e-01 2.52884875e-01 4.35378144e-01
 5.05400618e-01 3.55848821e-01 2.32242129e-01 1.73170923e-01
 1.18072407e-01 8.55277005e-02 7.45594213e-02 5.78369137e-02
 5.55900281e-02 4.95372360e-02 5.06771631e-02 5.11071104e-02
 4.77547158e-02 5.93053644e-02 5.29580893e-02 5.94451879e-02
 3.66949096e-02 3.60153733e-02 4.43396821e-02 4.26408450e-02
 5.01157334e-02 5.41929440e-02 6.30269051e-02 6.06060606e-16
 6.06060606e-16 6.06060606e-16 6.06060606e-16 6.06060606e-16
 6.06060606e-16 6.06060606e-16 6.06060606e-16 6.06060606e-16
 6.06060606e-16 6.06060606e-16 6.06060606e-16 6.06060606e-16
 6.06060606e-16 6.06060606e-16 6.06060606e-16 6.06060606e-16
 6.06060606e-16 6.06060606e-16 6.06060606e-16 6.06060606e-16
 6.06060606e-16 6.06060606e-16 6.06060606e-16 6.06060606e-16
 6.06060606e-16 6.06060606e-16 6.06060606e-16 6.06060606e-16
 6.06060606e-16 6.06060606e-16 6.06060606e-16 6.06060606e-16
 6.06060606e-16 6.06060606e-16 6.06060606e-16 6.06060606e-16
 6.06060606e-16 6.06060606e-16 6.06060606e-16 6.06060606e-16
 6.06060606e-16 6.06060606e-16 6.06060606e-16 1.00000000e+00]

2019-09-26 13:32:20,125 - INFO : Cluster center 14 : 
[8.82966917e-01 5.76049652e-01 2.65310588e-01 9.93858404e-02
 4.21333973e-02 6.50617725e-02 7.11151909e-02 7.71581386e-02
 7.96193567e-02 7.74045095e-02 7.64380047e-02 8.07670716e-02
 8.04690299e-02 9.09479330e-02 9.66888597e-02 9.04567922e-02
 1.00042743e-01 1.10276200e-01 1.09089744e-01 1.19492424e-01
 1.26927960e-01 1.43517599e-01 1.58039564e-01 1.61042701e-01
 1.90736157e-01 2.02038044e-01 2.19461906e-01 2.50324479e-01
 2.62206316e-01 2.93905357e-01 3.04808319e-01 3.18633063e-01
 3.44206316e-01 3.45037856e-01 3.48579308e-01 3.33810344e-01
 3.19685162e-01 2.90274416e-01 2.56874625e-01 2.31381641e-01
 2.09974395e-01 1.95281544e-01 1.93013750e-01 1.81923235e-01
 1.72617293e-01 1.65793352e-01 1.62529122e-01 1.71027809e-01
 1.66368670e-01 1.71840727e-01 1.66822006e-01 1.68696861e-01
 1.82292263e-01 1.72011351e-01 1.82305236e-01 1.77468703e-01
 1.74898109e-01 1.81405256e-01 1.83921765e-01 1.88038617e-01
 1.84923940e-01 1.78553932e-01 1.82715729e-01 1.83755976e-01
 1.86676468e-01 1.83662887e-01 1.85029565e-01 1.85220471e-01
 1.82677612e-01 1.87924080e-01 1.85334153e-01 1.89436326e-01
 1.90921140e-01 1.88045374e-01 1.91192960e-01 1.85061494e-01
 1.83278705e-01 1.97750579e-01 1.88044231e-01 1.92782326e-01
 1.89843009e-01 1.96079653e-01 1.96438882e-01 2.09052797e-01
 2.24929527e-01 2.12358643e-01 2.05557628e-01 2.21223015e-01
 2.04900748e-01 2.11543537e-01 1.92021851e-01 1.99849479e-01
 1.93513384e-01 1.88890377e-01 2.06811562e-01 2.35077653e-01
 2.50061262e-01 2.33541199e-01 2.31717525e-01 2.42595320e-01
 2.44354431e-01 2.68035736e-01 2.76608177e-01 2.82128391e-01
 2.73469679e-01 2.55755259e-01 3.14983650e-01 3.41131617e-01
 4.60623828e-01 5.53503274e-01 4.08019267e-01 2.12460002e-01
 1.59207332e-01 1.29390449e-01 1.79819926e-01 2.37044994e-01
 3.81197303e-01 4.52636348e-01 3.20871226e-01 2.62044898e-01
 1.54694223e-01 1.55974636e-01 1.78120673e-01 1.72921266e-01
 1.80003613e-01 1.73299334e-01 1.78527738e-01 1.86671790e-01
 1.80683375e-01 1.88086535e-01 1.88984343e-01 1.93545916e-01
 2.03644593e-01 2.10632407e-01 5.00442386e-02 4.61687116e-02
 3.87662594e-02 4.54254921e-02 4.47120043e-02 5.66034941e-02
 1.06153846e-14 1.06153846e-14 1.06153846e-14 1.06153846e-14
 1.06153846e-14 1.06153846e-14 1.06153846e-14 1.06153846e-14
 1.06153846e-14 1.06153846e-14 1.06153846e-14 1.06153846e-14
 1.06153846e-14 1.06153846e-14 1.06153846e-14 1.06153846e-14
 1.06153846e-14 1.06153846e-14 1.06153846e-14 1.06153846e-14
 1.06153846e-14 1.06153846e-14 1.06153846e-14 1.06153846e-14
 1.06153846e-14 1.06153846e-14 1.06153846e-14 1.06153846e-14
 1.06153846e-14 1.06153846e-14 1.06153846e-14 1.06153846e-14
 1.06153846e-14 1.06153846e-14 1.06153846e-14 1.06153846e-14
 1.06153846e-14 1.06153846e-14 1.06153846e-14 1.06153846e-14
 1.06153846e-14 1.06153846e-14 1.06153846e-14 1.06153846e-14
 1.06153846e-14 1.06153846e-14 1.06153846e-14 1.00000000e+00]

2019-09-26 13:32:21,196 - INFO : Cluster center 15 : 
[ 9.93352860e-01  7.64488861e-01  4.54758397e-01  2.47735962e-01
  2.39319342e-01  1.93086531e-01  1.75141799e-01  2.01423271e-01
  2.03823834e-01  2.02532830e-01  2.21035482e-01  2.06782033e-01
  1.97323954e-01  2.36043015e-01  2.23742465e-01  2.38788940e-01
  2.74162223e-01  2.44462302e-01  2.62718564e-01  2.73520311e-01
  2.71886269e-01  2.81787037e-01  2.67729059e-01  2.58754277e-01
  2.55563302e-01  2.56752786e-01  2.43589731e-01  2.57289830e-01
  2.57231734e-01  2.40561705e-01  2.52755900e-01  2.75502693e-01
  2.36124585e-01  2.54170138e-01  2.47490283e-01  2.43610783e-01
  2.68698666e-01  2.49690104e-01  2.60652550e-01  2.87174986e-01
  2.85027106e-01  3.01368114e-01  2.81639290e-01  2.92495430e-01
  2.92826732e-01  3.06462287e-01  3.11299043e-01  3.18186606e-01
  3.12248577e-01  3.30080263e-01  2.84914438e-01  2.79259585e-01
  2.74503595e-01  2.66111398e-01  2.59796070e-01  2.07999288e-01
  2.22693799e-01  1.78170945e-01  1.95192174e-01  1.98293358e-01
  1.84224353e-01  2.07851159e-01  1.61986817e-01  1.98433600e-01
  1.98929828e-01  1.93716268e-01  2.19843557e-01  3.85494034e-01
  4.47409272e-01  3.61866564e-01  2.08013436e-01  1.90706688e-01
  1.80133606e-01  1.06917626e-01  1.26874705e-01  1.19856745e-01
  1.30569065e-01  1.24479824e-01  1.34699020e-01  1.16088704e-01
  1.06996734e-01  9.64398384e-03  3.29897560e-02  8.56687061e-02
  9.95702639e-02  4.99794818e-02  3.26973736e-02  2.39461489e-02
  2.02960752e-02  1.80598140e-02  1.59595106e-02  3.77196804e-02
  7.27134630e-02  1.12378223e-01  8.49367857e-02  6.56390697e-02
  4.33356240e-02  3.53153989e-02  2.79221907e-02  2.25872546e-02
  7.93150067e-03  7.50337988e-03  7.09779188e-03  6.08382151e-03
  6.62460551e-03  6.19648509e-03  6.06128871e-03  5.76836430e-03
  5.09238392e-03  5.72329871e-03  5.81342950e-03 -8.00000000e-15
 -8.00000000e-15 -8.00000000e-15 -8.00000000e-15 -8.00000000e-15
 -8.00000000e-15 -8.00000000e-15 -8.00000000e-15 -8.00000000e-15
 -8.00000000e-15 -8.00000000e-15 -8.00000000e-15 -8.00000000e-15
 -8.00000000e-15 -8.00000000e-15 -8.00000000e-15 -8.00000000e-15
 -8.00000000e-15 -8.00000000e-15 -8.00000000e-15 -8.00000000e-15
 -8.00000000e-15 -8.00000000e-15 -8.00000000e-15 -8.00000000e-15
 -8.00000000e-15 -8.00000000e-15 -8.00000000e-15 -8.00000000e-15
 -8.00000000e-15 -8.00000000e-15 -8.00000000e-15 -8.00000000e-15
 -8.00000000e-15 -8.00000000e-15 -8.00000000e-15 -8.00000000e-15
 -8.00000000e-15 -8.00000000e-15 -8.00000000e-15 -8.00000000e-15
 -8.00000000e-15 -8.00000000e-15 -8.00000000e-15 -8.00000000e-15
 -8.00000000e-15 -8.00000000e-15 -8.00000000e-15 -8.00000000e-15
 -8.00000000e-15 -8.00000000e-15 -8.00000000e-15 -8.00000000e-15
 -8.00000000e-15 -8.00000000e-15 -8.00000000e-15 -8.00000000e-15
 -8.00000000e-15 -8.00000000e-15 -8.00000000e-15 -8.00000000e-15
 -8.00000000e-15 -8.00000000e-15 -8.00000000e-15 -8.00000000e-15
 -8.00000000e-15 -8.00000000e-15 -8.00000000e-15 -8.00000000e-15
 -8.00000000e-15 -8.00000000e-15 -8.00000000e-15 -8.00000000e-15
 -8.00000000e-15 -8.00000000e-15 -8.00000000e-15  1.00000000e+00]

2019-09-26 13:32:21,806 - INFO : Cluster center 16 : 
[ 9.77959021e-01  5.22960551e-01  2.00888402e-01  1.15546652e-01
  1.82551075e-01  2.52203385e-01  2.61843324e-01  2.68262017e-01
  2.65990184e-01  2.68601668e-01  2.70476610e-01  2.74940515e-01
  2.68007707e-01  2.81312382e-01  2.79667359e-01  2.74044637e-01
  2.83681652e-01  2.89674774e-01  2.94438319e-01  2.94462387e-01
  2.99463991e-01  2.97643124e-01  3.09882329e-01  3.17195359e-01
  3.26925035e-01  3.39836609e-01  3.18935576e-01  3.34525888e-01
  3.46661371e-01  3.39160486e-01  3.33137447e-01  3.09029981e-01
  3.16810032e-01  3.11080604e-01  3.03207507e-01  3.11884782e-01
  2.99572825e-01  3.08845321e-01  2.87279979e-01  2.96179962e-01
  2.98684440e-01  2.92109563e-01  2.72432699e-01  2.91331922e-01
  2.75954851e-01  2.81790287e-01  2.70919999e-01  2.98705404e-01
  2.96758379e-01  2.78756671e-01  2.73370439e-01  2.72304741e-01
  2.94212352e-01  2.94236077e-01  2.88606965e-01  2.97363698e-01
  2.92346147e-01  3.05682231e-01  3.05610328e-01  3.01109614e-01
  3.18999451e-01  3.17022345e-01  3.23952143e-01  3.27918956e-01
  3.11402467e-01  3.32262513e-01  3.02180378e-01  2.95229249e-01
  3.08505016e-01  3.27836814e-01  3.57584140e-01  3.70380689e-01
  3.76402836e-01  4.06351144e-01  4.23985815e-01  4.38781730e-01
  4.36967091e-01  3.75358698e-01  3.85160138e-01  3.65315765e-01
  3.45380370e-01  3.15632554e-01  2.82070619e-01  3.00709932e-01
  3.05791367e-01  3.48685753e-01  3.54233876e-01  3.14925924e-01
  4.26831179e-01  4.45456423e-01  4.07000140e-01  5.25758442e-01
  2.57234510e-01  1.86788010e-01  1.50771638e-01  2.01228126e-01
  2.55224672e-01  2.47636477e-01  2.89064080e-01  3.19560176e-01
  3.05275650e-01  2.62410047e-01  2.49014474e-01  2.54970526e-01
  2.41770718e-01  2.53240090e-01  2.40862544e-01  2.32983658e-01
  2.39409495e-01  7.00828402e-02  6.87667704e-02  7.00188954e-02
  7.06026005e-02  7.44429309e-02  7.09156786e-02  4.75170001e-02
  7.44379782e-02  8.67455288e-02  6.57974670e-02  4.81913451e-02
  4.10541503e-02  5.37705311e-02  5.07445947e-02  2.77008359e-02
  2.49715063e-02  1.30679772e-02  2.66557163e-02  3.10447185e-02
  3.18472605e-02  3.23165890e-02  3.09452101e-02  3.21016672e-02
  3.29803777e-02  3.18940172e-02  3.49058870e-02  3.35066946e-02
  3.56412906e-02  3.71647681e-02  3.65609229e-02  3.70843630e-02
  1.84561406e-02  1.87719292e-02  1.94035094e-02  1.93333328e-02
  1.90526310e-02 -4.21052632e-15 -4.21052632e-15 -4.21052632e-15
 -4.21052632e-15 -4.21052632e-15 -4.21052632e-15 -4.21052632e-15
 -4.21052632e-15 -4.21052632e-15 -4.21052632e-15 -4.21052632e-15
 -4.21052632e-15 -4.21052632e-15 -4.21052632e-15 -4.21052632e-15
 -4.21052632e-15 -4.21052632e-15 -4.21052632e-15 -4.21052632e-15
 -4.21052632e-15 -4.21052632e-15 -4.21052632e-15 -4.21052632e-15
 -4.21052632e-15 -4.21052632e-15 -4.21052632e-15 -4.21052632e-15
 -4.21052632e-15 -4.21052632e-15 -4.21052632e-15 -4.21052632e-15
 -4.21052632e-15 -4.21052632e-15 -4.21052632e-15 -4.21052632e-15
 -4.21052632e-15 -4.21052632e-15 -4.21052632e-15 -4.21052632e-15
 -4.21052632e-15 -4.21052632e-15 -4.21052632e-15  1.00000000e+00]

2019-09-26 13:32:22,297 - INFO : Cluster center 17 : 
[ 9.95331040e-01  6.20470012e-01  3.47202603e-01  2.22951898e-01
  1.70943888e-01  9.39919836e-02  8.52530412e-02  6.27920093e-02
  5.92164557e-02  6.33096341e-02  6.19589297e-02  6.11797914e-02
  5.99028199e-02  7.89312570e-02  7.76902909e-02  7.56593514e-02
  8.54657397e-02  8.26921451e-02  1.05054961e-01  1.07987977e-01
  1.06743523e-01  1.13429259e-01  1.22421116e-01  1.33774370e-01
  1.32419781e-01  1.56877648e-01  1.74477618e-01  1.77375429e-01
  1.74122853e-01  1.66699119e-01  1.60538060e-01  1.47670252e-01
  1.35263898e-01  1.46286936e-01  1.28725770e-01  1.20379960e-01
  1.16591544e-01  1.12256450e-01  1.07155167e-01  8.87280014e-02
  1.03088488e-01  1.06150756e-01  8.60644487e-02  1.03527373e-01
  9.93173830e-02  1.02971875e-01  1.05382119e-01  1.02322208e-01
  1.06023039e-01  9.85215002e-02  9.68564289e-02  1.14247438e-01
  1.08615163e-01  1.09046945e-01  1.17796689e-01  1.15572610e-01
  1.03469283e-01  1.00579968e-01  1.07640410e-01  9.87514594e-02
  1.06784892e-01  1.07482485e-01  9.31611027e-02  1.06051243e-01
  1.09726396e-01  1.06312275e-01  1.09791966e-01  1.02366283e-01
  1.11329298e-01  9.79218105e-02  1.08905077e-01  1.25673595e-01
  1.65227102e-01  2.07827006e-01  2.15882135e-01  2.10812035e-01
  2.10087326e-01  1.91526304e-01  1.75070238e-01  1.47804534e-01
  1.31782000e-01  1.28962666e-01  1.00602967e-01  1.07830385e-01
  9.54241827e-02  7.40001257e-02  7.24799787e-02  6.64935069e-02
  8.72646091e-02  5.26972359e-02  9.82739889e-02  2.97672023e-01
  5.43257923e-01  5.85695488e-01  6.11308762e-01  5.20082648e-01
  2.95650577e-01  2.34403589e-01  1.98951901e-01  9.00963565e-02
  9.18618940e-02  9.18878671e-02  6.71702059e-02  7.63851500e-02
  7.18289210e-02  7.61636900e-02  7.79590799e-02  4.98403618e-02
  5.38848033e-02  4.59736086e-02  5.14985601e-02  3.65932586e-02
  3.82884189e-02  4.36552464e-02  3.47503206e-03  3.52633103e-03
  3.32856259e-03  3.34241161e-03  3.90343620e-03  3.81975564e-03
  4.03595544e-03  1.84404632e-03  2.09870040e-03  1.97576399e-03
  1.90551453e-03  2.34457323e-03 -7.53846154e-15 -7.53846154e-15
 -7.53846154e-15 -7.53846154e-15 -7.53846154e-15 -7.53846154e-15
 -7.53846154e-15 -7.53846154e-15 -7.53846154e-15 -7.53846154e-15
 -7.53846154e-15 -7.53846154e-15 -7.53846154e-15 -7.53846154e-15
 -7.53846154e-15 -7.53846154e-15 -7.53846154e-15 -7.53846154e-15
 -7.53846154e-15 -7.53846154e-15 -7.53846154e-15 -7.53846154e-15
 -7.53846154e-15 -7.53846154e-15 -7.53846154e-15 -7.53846154e-15
 -7.53846154e-15 -7.53846154e-15 -7.53846154e-15 -7.53846154e-15
 -7.53846154e-15 -7.53846154e-15 -7.53846154e-15 -7.53846154e-15
 -7.53846154e-15 -7.53846154e-15 -7.53846154e-15 -7.53846154e-15
 -7.53846154e-15 -7.53846154e-15 -7.53846154e-15 -7.53846154e-15
 -7.53846154e-15 -7.53846154e-15 -7.53846154e-15 -7.53846154e-15
 -7.53846154e-15 -7.53846154e-15 -7.53846154e-15 -7.53846154e-15
 -7.53846154e-15 -7.53846154e-15 -7.53846154e-15 -7.53846154e-15
 -7.53846154e-15 -7.53846154e-15 -7.53846154e-15 -7.53846154e-15
 -7.53846154e-15 -7.53846154e-15 -7.53846154e-15  1.00000000e+00]

2019-09-26 13:32:22,907 - INFO : Cluster center 18 : 
[9.75721083e-01 6.59088127e-01 3.26545737e-01 1.70039286e-01
 1.43938598e-01 2.16897307e-01 2.73417940e-01 2.87063655e-01
 3.03182171e-01 3.09288078e-01 3.14798960e-01 3.21243816e-01
 3.08186935e-01 3.20848407e-01 3.22366380e-01 3.19921825e-01
 3.18501151e-01 3.23821462e-01 3.23934237e-01 3.21200860e-01
 3.28793066e-01 3.33081548e-01 3.35460233e-01 3.30484119e-01
 3.35061499e-01 3.43947176e-01 3.35230145e-01 3.43046619e-01
 3.37783696e-01 3.35293212e-01 3.29302656e-01 3.18128469e-01
 3.01870468e-01 3.09534622e-01 2.81937041e-01 2.79477508e-01
 2.67939313e-01 2.68810876e-01 2.68143231e-01 2.68915549e-01
 2.75076162e-01 2.81636961e-01 2.99832694e-01 3.08096566e-01
 3.12492504e-01 3.00624683e-01 3.19728805e-01 3.21195833e-01
 3.24086672e-01 3.24529034e-01 3.23101157e-01 3.25735611e-01
 3.36431889e-01 3.31636797e-01 3.26432643e-01 3.27916801e-01
 3.25060068e-01 3.37816051e-01 3.33780165e-01 3.28259661e-01
 3.39766249e-01 3.40806781e-01 3.49011305e-01 3.59670455e-01
 3.56048565e-01 3.43074100e-01 3.34075841e-01 3.19738316e-01
 3.31003788e-01 3.16633993e-01 3.07558800e-01 3.08152468e-01
 3.09478977e-01 3.20841125e-01 3.14196416e-01 3.14307427e-01
 3.03312117e-01 2.89946249e-01 3.14637703e-01 3.58347202e-01
 3.81634605e-01 3.60264774e-01 3.13287976e-01 3.04877131e-01
 3.28680876e-01 3.65767662e-01 3.37638231e-01 2.86330855e-01
 3.07302078e-01 3.46559340e-01 3.32947157e-01 3.28590513e-01
 3.53677196e-01 3.49370745e-01 3.33244310e-01 3.33981075e-01
 3.74919499e-01 3.86041503e-01 4.55070212e-01 4.90698727e-01
 4.61446627e-01 3.92927099e-01 3.74945438e-01 3.80703646e-01
 3.33048461e-01 3.24651980e-01 2.96901658e-01 2.71189787e-01
 2.67256181e-01 2.65812668e-01 2.52384967e-01 2.55291356e-01
 2.55803826e-01 2.62932872e-01 2.54857332e-01 2.08244489e-01
 2.59454038e-01 2.76250736e-01 2.19246008e-01 1.82886370e-01
 2.45665391e-01 4.56512735e-01 3.41972110e-01 1.66332371e-01
 7.98184777e-02 2.25719606e-02 1.05780182e-01 1.65663345e-01
 1.80434948e-01 1.95622496e-01 1.94245268e-01 2.02439717e-01
 2.03461742e-01 2.06047088e-01 2.04804597e-01 2.02635689e-01
 2.00125776e-01 2.08954180e-01 2.08902681e-01 2.02122607e-01
 1.67219934e-01 1.71979305e-01 1.72078699e-01 1.71213857e-01
 1.70729009e-01 1.35341146e-01 1.27904816e-01 1.29887830e-01
 2.27272727e-14 2.27272727e-14 2.27272727e-14 2.27272727e-14
 2.27272727e-14 2.27272727e-14 2.27272727e-14 2.27272727e-14
 2.27272727e-14 2.27272727e-14 2.27272727e-14 2.27272727e-14
 2.27272727e-14 2.27272727e-14 2.27272727e-14 2.27272727e-14
 2.27272727e-14 2.27272727e-14 2.27272727e-14 2.27272727e-14
 2.27272727e-14 2.27272727e-14 2.27272727e-14 2.27272727e-14
 2.27272727e-14 2.27272727e-14 2.27272727e-14 2.27272727e-14
 2.27272727e-14 2.27272727e-14 2.27272727e-14 2.27272727e-14
 2.27272727e-14 2.27272727e-14 2.27272727e-14 2.27272727e-14
 2.27272727e-14 2.27272727e-14 2.27272727e-14 1.00000000e+00]

2019-09-26 13:32:23,901 - INFO : Cluster center 19 : 
[9.50985089e-01 7.45895374e-01 4.35673077e-01 1.62333689e-01
 8.29900250e-02 9.10487820e-02 8.49219808e-02 8.11143919e-02
 7.56000975e-02 7.89255651e-02 6.86652724e-02 7.45181195e-02
 8.16191131e-02 7.21757061e-02 8.31493291e-02 8.09019375e-02
 9.74435163e-02 1.03895541e-01 9.45390544e-02 1.13692132e-01
 1.09619163e-01 1.29927986e-01 1.51512336e-01 1.47733984e-01
 1.73797583e-01 1.85696713e-01 2.11994133e-01 2.45040219e-01
 2.58415952e-01 2.93109626e-01 3.13248105e-01 3.39475859e-01
 3.66114771e-01 3.67084127e-01 3.82416271e-01 3.69036256e-01
 3.57927069e-01 3.38437068e-01 2.90699795e-01 2.74581167e-01
 2.44448856e-01 2.22193648e-01 2.16055467e-01 1.98890194e-01
 1.99613306e-01 1.79821201e-01 1.84756609e-01 1.90465757e-01
 1.77277511e-01 1.93069748e-01 1.75162081e-01 1.84203183e-01
 1.84575224e-01 1.68001850e-01 1.81258149e-01 1.69391805e-01
 1.73353625e-01 1.68454786e-01 1.60375296e-01 1.71158349e-01
 1.61346489e-01 1.60164439e-01 1.63682239e-01 1.63725635e-01
 1.67138278e-01 1.67887694e-01 1.70913898e-01 1.71289925e-01
 1.64275685e-01 1.67924380e-01 1.65497112e-01 1.75248466e-01
 1.78841625e-01 1.70837396e-01 1.81048340e-01 1.63288742e-01
 1.69136548e-01 1.81597125e-01 1.59470193e-01 1.65125913e-01
 1.55993721e-01 1.56913084e-01 1.62634600e-01 1.49708473e-01
 1.62596349e-01 1.42849473e-01 1.40149945e-01 1.44599232e-01
 1.32170835e-01 1.35895756e-01 1.15494145e-01 1.29575147e-01
 1.36482206e-01 1.44423703e-01 2.11143729e-01 2.52111782e-01
 2.81959215e-01 2.52762326e-01 2.36468251e-01 2.56557160e-01
 2.70718487e-01 3.13686590e-01 3.22549393e-01 3.28408600e-01
 3.11019298e-01 2.63090992e-01 2.26994781e-01 1.59834999e-01
 1.24779642e-01 1.20536752e-01 1.00050686e-01 8.05419236e-02
 7.96061039e-02 6.63356427e-02 1.41599490e-01 2.35596814e-01
 5.02151498e-01 6.38519337e-01 3.76307873e-01 2.56092430e-01
 4.46441305e-02 4.41577771e-02 8.44361308e-02 7.01837201e-02
 8.81449506e-02 7.29339759e-02 7.88869460e-02 7.75465622e-02
 6.14057978e-02 7.79933568e-02 6.53884492e-02 7.33705922e-02
 7.95571334e-02 8.32931237e-02 9.85719851e-02 9.09383712e-02
 7.63577837e-02 8.94744541e-02 8.80690994e-02 1.11491731e-01
 9.09090909e-16 9.09090909e-16 9.09090909e-16 9.09090909e-16
 9.09090909e-16 9.09090909e-16 9.09090909e-16 9.09090909e-16
 9.09090909e-16 9.09090909e-16 9.09090909e-16 9.09090909e-16
 9.09090909e-16 9.09090909e-16 9.09090909e-16 9.09090909e-16
 9.09090909e-16 9.09090909e-16 9.09090909e-16 9.09090909e-16
 9.09090909e-16 9.09090909e-16 9.09090909e-16 9.09090909e-16
 9.09090909e-16 9.09090909e-16 9.09090909e-16 9.09090909e-16
 9.09090909e-16 9.09090909e-16 9.09090909e-16 9.09090909e-16
 9.09090909e-16 9.09090909e-16 9.09090909e-16 9.09090909e-16
 9.09090909e-16 9.09090909e-16 9.09090909e-16 9.09090909e-16
 9.09090909e-16 9.09090909e-16 9.09090909e-16 9.09090909e-16
 9.09090909e-16 9.09090909e-16 9.09090909e-16 1.00000000e+00]

