02-Oct-19 20:22:21 - INFO : <BrokerConnection node_id=bootstrap-0 host=localhost:9092 <connecting> [IPv6 ('::1', 9092, 0, 0)]>: connecting to localhost:9092 [('::1', 9092, 0, 0) IPv6]
02-Oct-19 20:22:21 - INFO : Probing node bootstrap-0 broker version
02-Oct-19 20:22:21 - INFO : <BrokerConnection node_id=bootstrap-0 host=localhost:9092 <connecting> [IPv6 ('::1', 9092, 0, 0)]>: Connection complete.
02-Oct-19 20:22:21 - INFO : Broker version identifed as 1.0.0
02-Oct-19 20:22:21 - INFO : Set configuration api_version=(1, 0, 0) to skip auto check_version requests on startup
02-Oct-19 20:22:22 - INFO : <BrokerConnection node_id=0 host=172.21.144.1:9092 <connecting> [IPv4 ('172.21.144.1', 9092)]>: connecting to 172.21.144.1:9092 [('172.21.144.1', 9092) IPv4]
02-Oct-19 20:22:22 - INFO : <BrokerConnection node_id=0 host=172.21.144.1:9092 <connecting> [IPv4 ('172.21.144.1', 9092)]>: Connection complete.
02-Oct-19 20:22:22 - INFO : <BrokerConnection node_id=bootstrap-0 host=localhost:9092 <connected> [IPv6 ('::1', 9092, 0, 0)]>: Closing connection. 
02-Oct-19 20:22:22 - INFO : Sent ekg signal message: {"timestamp": "10/02/2019 20:22:22", "signal_values": [0.9322328567504883, 0.8696785569190979, 0.8861859440803528, 0.9296264052391052, 0.9087749719619751, 0.9339704513549805, 0.8010425567626953, 0.7497828006744385, 0.6872285008430481, 0.6350998878479004, 0.6498696804046631, 0.6350998878479004, 0.6550825238227844, 0.6646394729614258, 0.6333622932434082, 0.7463075518608093, 0.8714161515235901, 0.9383144974708557, 1.0, 0.9487402439117432, 0.3961772322654724, 0.0, 0.03909643739461899, 0.12858383357524872, 0.305821031332016, 0.6403127908706665, 0.6177237033843994, 0.5377932190895081, 0.3527367413043976, 0.2206776738166809, 0.25629886984825134, 0.3579496145248413, 0.4821893870830536, 0.5708079934120178, 0.5777584910392761, 0.6203301548957825, 0.6220677495002747, 0.6185925006866455, 0.6264117956161499, 0.6125108599662781, 0.6220677495002747, 0.5977410674095154, 0.6185925006866455, 0.6307558417320251, 0.6229366064071655, 0.6281494498252869, 0.6064292192459106, 0.6446568369865417, 0.6715899109840393, 0.6229366064071655, 0.6733275651931763, 0.6698523163795471, 0.6872285008430481, 0.7245873212814331, 0.7185056209564209, 0.7506515979766846, 0.7280625700950623, 0.739357054233551, 0.7480452060699463, 0.7437011003494263, 0.7888792157173157, 0.739357054233551, 0.0, 0.0, 0.0, 0.0, 0.0, 0.0, 0.0, 0.0, 0.0, 0.0, 0.0, 0.0, 0.0, 0.0, 0.0, 0.0, 0.0, 0.0, 0.0, 0.0, 0.0, 0.0, 0.0, 0.0, 0.0, 0.0, 0.0, 0.0, 0.0, 0.0, 0.0, 0.0, 0.0, 0.0, 0.0, 0.0, 0.0, 0.0, 0.0, 0.0, 0.0, 0.0, 0.0, 0.0, 0.0, 0.0, 0.0, 0.0, 0.0, 0.0, 0.0, 0.0, 0.0, 0.0, 0.0, 0.0, 0.0, 0.0, 0.0, 0.0, 0.0, 0.0, 0.0, 0.0, 0.0, 0.0, 0.0, 0.0, 0.0, 0.0, 0.0, 0.0, 0.0, 0.0, 0.0, 0.0, 0.0, 0.0, 0.0, 0.0, 0.0, 0.0, 0.0, 0.0, 0.0, 0.0, 0.0, 0.0, 0.0, 0.0, 0.0, 0.0, 0.0, 0.0, 0.0, 0.0, 0.0, 0.0, 0.0, 0.0, 0.0, 0.0, 0.0, 0.0, 0.0, 0.0, 0.0, 0.0, 0.0, 0.0, 0.0, 0.0, 0.0, 0.0, 0.0, 0.0, 0.0, 0.0, 0.0, 0.0, 0.0, 0.0, 0.0, 0.0, 0.0, 1.0]}
02-Oct-19 20:22:23 - INFO : Sent ekg signal message: {"timestamp": "10/02/2019 20:22:23", "signal_values": [1.0, 0.6069411039352417, 0.38418078422546387, 0.2542372941970825, 0.223567396402359, 0.2768361568450928, 0.25343018770217896, 0.18482647836208344, 0.15334947407245636, 0.12187247723340988, 0.12510088086128235, 0.12913639843463898, 0.13720741868019104, 0.13720741868019104, 0.13236480951309204, 0.12671509385108948, 0.15819208323955536, 0.1525423675775528, 0.13236480951309204, 0.16868442296981812, 0.15657788515090942, 0.1832122653722763, 0.19128328561782837, 0.20419692993164062, 0.23002421855926514, 0.24455206096172333, 0.2857142984867096, 0.3075060546398163, 0.3212268054485321, 0.32768362760543823, 0.3518967032432556, 0.3736884593963623, 0.3970944285392761, 0.36319613456726074, 0.3405972421169281, 0.3075060546398163, 0.25827279686927795, 0.1977401077747345, 0.19935432076454163, 0.17352703213691711, 0.1476997584104538, 0.1355932205915451, 0.13397902250289917, 0.10573042929172516, 0.12187247723340988, 0.1355932205915451, 0.10653752833604813, 0.14850686490535736, 0.1355932205915451, 0.13478611409664154, 0.15092816948890686, 0.1646489053964615, 0.09443099051713943, 0.10653752833604813, 0.12106537818908691, 0.14124293625354767, 0.12267958372831345, 0.1355932205915451, 0.13155770301818848, 0.15092816948890686, 0.11702986061573029, 0.1331719160079956, 0.10411622375249863, 0.13720741868019104, 0.11945117264986038, 0.11460855603218079, 0.09685230255126953, 0.09120257943868637, 0.12913639843463898, 0.1000807136297226, 0.08635997027158737, 0.11380144953727722, 0.04116222634911537, 0.09362389147281647, 0.08151735365390778, 0.07425343245267868, 0.08071024715900421, 0.07990314811468124, 0.07828894257545471, 0.05326876416802406, 0.07506053149700165, 0.07586763799190521, 0.08071024715900421, 0.10411622375249863, 0.08393865823745728, 0.07667473703622818, 0.11945117264986038, 0.11299435049295425, 0.07990314811468124, 0.11783696711063385, 0.09362389147281647, 0.11783696711063385, 0.08635997027158737, 0.1380145251750946, 0.09927360713481903, 0.08313155919313431, 0.06941081583499908, 0.07828894257545471, 0.05326876416802406, 0.09604519605636597, 0.1404358297586441, 0.11138014495372772, 0.162227600812912, 0.12348668277263641, 0.1380145251750946, 0.06456819921731949, 0.0879741758108139, 0.06133979186415672, 0.037933818995952606, 0.03954802080988884, 0.07183212041854858, 0.04600484296679497, 0.0451977401971817, 0.0, 0.016142049804329872, 0.06537530571222305, 0.15657788515090942, 0.22518159449100494, 0.46085551381111145, 0.9507667422294617, 0.6069411039352417, 0.33494752645492554, 0.22518159449100494, 0.21226796507835388, 0.2477804720401764, 0.21630346775054932, 0.11702986061573029, 0.08071024715900421, 0.10330911725759506, 0.06779661029577255, 0.1307506114244461, 0.08151735365390778, 0.07990314811468124, 0.06941081583499908, 0.11299435049295425, 0.11299435049295425, 0.13478611409664154, 0.13640032708644867, 0.15657788515090942, 0.13397902250289917, 0.13155770301818848, 0.16303470730781555, 0.1977401077747345, 0.22033898532390594, 0.20096851885318756, 0.2526230812072754, 0.0, 0.0, 0.0, 0.0, 0.0, 0.0, 0.0, 0.0, 0.0, 0.0, 0.0, 0.0, 0.0, 0.0, 0.0, 0.0, 0.0, 0.0, 0.0, 0.0, 0.0, 0.0, 0.0, 0.0, 0.0, 0.0, 0.0, 0.0, 0.0, 0.0, 0.0, 0.0, 0.0, 0.0, 0.0, 0.0, 0.0, 0.0, 0.0, 0.0, 0.0, 1.0]}
02-Oct-19 20:22:24 - INFO : Sent ekg signal message: {"timestamp": "10/02/2019 20:22:24", "signal_values": [1.0, 0.9516128897666931, 0.9239631295204163, 0.8533025979995728, 0.7918586730957031, 0.7342550158500671, 0.6720430254936218, 0.6850998401641846, 0.6705068945884705, 0.6674346923828125, 0.6812595725059509, 0.6167434453964233, 0.6244239807128906, 0.6198156476020813, 0.5960061550140381, 0.6274961829185486, 0.6313363909721375, 0.6190476417541504, 0.6129032373428345, 0.6136713027954102, 0.6075268983840942, 0.5867895483970642, 0.5683563947677612, 0.5437787771224976, 0.5268816947937012, 0.5529953837394714, 0.5775729417800903, 0.5921658873558044, 0.5760368704795837, 0.5791090726852417, 0.5737327337265015, 0.5898617506027222, 0.542242705821991, 0.5192012190818787, 0.5145929455757141, 0.5284178256988525, 0.4938555955886841, 0.4854070544242859, 0.4615975320339203, 0.4784946143627167, 0.48156681656837463, 0.4439324140548706, 0.4838709533214569, 0.48924732208251953, 0.5069124698638916, 0.5299538969993591, 0.5399385690689087, 0.5698924660682678, 0.5399385690689087, 0.5522273182868958, 0.5929339528083801, 0.5668202638626099, 0.5537634491920471, 0.5522273182868958, 0.5660521984100342, 0.5752688050270081, 0.5983102917671204, 0.5637480616569519, 0.5952380895614624, 0.562980055809021, 0.5560675859451294, 0.5038402676582336, 0.5161290168762207, 0.498463898897171, 0.5276497602462769, 0.5230414867401123, 0.5145929455757141, 0.5314900279045105, 0.536098301410675, 0.5337941646575928, 0.557603657245636, 0.5384024381637573, 0.5399385690689087, 0.5652841925621033, 0.6344085931777954, 0.578341007232666, 0.44930875301361084, 0.5768049359321594, 0.8540706634521484, 0.4700460731983185, 0.0, 0.13133640587329865, 0.40092167258262634, 0.5821812748908997, 0.5821812748908997, 0.5798771381378174, 0.5499231815338135, 0.5898617506027222, 0.5921658873558044, 0.5844854116439819, 0.5898617506027222, 0.0, 0.0, 0.0, 0.0, 0.0, 0.0, 0.0, 0.0, 0.0, 0.0, 0.0, 0.0, 0.0, 0.0, 0.0, 0.0, 0.0, 0.0, 0.0, 0.0, 0.0, 0.0, 0.0, 0.0, 0.0, 0.0, 0.0, 0.0, 0.0, 0.0, 0.0, 0.0, 0.0, 0.0, 0.0, 0.0, 0.0, 0.0, 0.0, 0.0, 0.0, 0.0, 0.0, 0.0, 0.0, 0.0, 0.0, 0.0, 0.0, 0.0, 0.0, 0.0, 0.0, 0.0, 0.0, 0.0, 0.0, 0.0, 0.0, 0.0, 0.0, 0.0, 0.0, 0.0, 0.0, 0.0, 0.0, 0.0, 0.0, 0.0, 0.0, 0.0, 0.0, 0.0, 0.0, 0.0, 0.0, 0.0, 0.0, 0.0, 0.0, 0.0, 0.0, 0.0, 0.0, 0.0, 0.0, 0.0, 0.0, 0.0, 0.0, 0.0, 0.0, 0.0, 0.0, 0.0, 1.0]}
02-Oct-19 20:22:25 - INFO : Sent ekg signal message: {"timestamp": "10/02/2019 20:22:25", "signal_values": [0.9778188467025757, 0.8992606401443481, 0.2301293909549713, 0.032347504049539566, 0.14232902228832245, 0.22365988790988922, 0.3280961215496063, 0.3678373396396637, 0.3817005455493927, 0.3890942633152008, 0.35767099261283875, 0.3798521161079407, 0.3752310574054718, 0.3974122107028961, 0.388170063495636, 0.37800368666648865, 0.39833641052246094, 0.41959333419799805, 0.42791128158569336, 0.402033269405365, 0.37892791628837585, 0.40018483996391296, 0.40665435791015625, 0.4223659932613373, 0.402033269405365, 0.3835489749908447, 0.39833641052246094, 0.39371535181999207, 0.417744904756546, 0.388170063495636, 0.3604436218738556, 0.4029574990272522, 0.39279112219810486, 0.41312384605407715, 0.37707948684692383, 0.3271718919277191, 0.3465804159641266, 0.3382624685764313, 0.35674676299095154, 0.3142329156398773, 0.2781885266304016, 0.3114602565765381, 0.32162660360336304, 0.3317929804325104, 0.31608134508132935, 0.29574862122535706, 0.3123844861984253, 0.3271718919277191, 0.32994455099105835, 0.3114602565765381, 0.2791127562522888, 0.3133086860179901, 0.3068391978740692, 0.3142329156398773, 0.2865064740180969, 0.24861368536949158, 0.2772643268108368, 0.2975970506668091, 0.31053605675697327, 0.2624768912792206, 0.24584104120731354, 0.28188538551330566, 0.2975970506668091, 0.3068391978740692, 0.27541589736938477, 0.23290203511714935, 0.25878003239631653, 0.27541589736938477, 0.29574862122535706, 0.2837338149547577, 0.2569316029548645, 0.30961182713508606, 0.3207024037837982, 0.32902032136917114, 0.32162660360336304, 0.2846580445766449, 0.3548983335494995, 0.3946395516395569, 0.41959333419799805, 0.43345656991004944, 0.4602587819099426, 0.47504621744155884, 0.4704251289367676, 0.4667282700538635, 0.3733826279640198, 0.3604436218738556, 0.34473198652267456, 0.30221810936927795, 0.31053605675697327, 0.28280961513519287, 0.2560074031352997, 0.2652495503425598, 0.2791127562522888, 0.29390019178390503, 0.2698706090450287, 0.23844732344150543, 0.2763400971889496, 0.42698705196380615, 0.4630314111709595, 0.6432532072067261, 1.0, 0.4029574990272522, 0.0, 0.0, 0.0, 0.0, 0.0, 0.0, 0.0, 0.0, 0.0, 0.0, 0.0, 0.0, 0.0, 0.0, 0.0, 0.0, 0.0, 0.0, 0.0, 0.0, 0.0, 0.0, 0.0, 0.0, 0.0, 0.0, 0.0, 0.0, 0.0, 0.0, 0.0, 0.0, 0.0, 0.0, 0.0, 0.0, 0.0, 0.0, 0.0, 0.0, 0.0, 0.0, 0.0, 0.0, 0.0, 0.0, 0.0, 0.0, 0.0, 0.0, 0.0, 0.0, 0.0, 0.0, 0.0, 0.0, 0.0, 0.0, 0.0, 0.0, 0.0, 0.0, 0.0, 0.0, 0.0, 0.0, 0.0, 0.0, 0.0, 0.0, 0.0, 0.0, 0.0, 0.0, 0.0, 0.0, 0.0, 0.0, 0.0, 0.0, 0.0, 0.0, 0.0, 0.0, 0.0, 1.0]}
02-Oct-19 20:22:26 - INFO : Sent ekg signal message: {"timestamp": "10/02/2019 20:22:26", "signal_values": [0.9356178641319275, 0.801661491394043, 0.8058151602745056, 1.0, 0.722741425037384, 0.4807892143726349, 0.4548286497592926, 0.3198338449001312, 0.2668743431568146, 0.30841121077537537, 0.28556594252586365, 0.3437175452709198, 0.2814122438430786, 0.2814122438430786, 0.2834891080856323, 0.2814122438430786, 0.3198338449001312, 0.31152647733688354, 0.2834891080856323, 0.27829697728157043, 0.2741433084011078, 0.3177570104598999, 0.26791277527809143, 0.27518171072006226, 0.28037384152412415, 0.2554517090320587, 0.31360331177711487, 0.2668743431568146, 0.24402907490730286, 0.19833852350711823, 0.19210799038410187, 0.19003115594387054, 0.13499480485916138, 0.08618899434804916, 0.07892004400491714, 0.036344755440950394, 0.024922117590904236, 0.0, 0.04465213045477867, 0.024922117590904236, 0.06645898520946503, 0.09138110280036926, 0.07372793555259705, 0.12045690417289734, 0.14018692076206207, 0.1370716542005539, 0.17653167247772217, 0.14537902176380157, 0.14122533798217773, 0.13603322207927704, 0.10799584537744522, 0.13291797041893005, 0.13499480485916138, 0.12772585451602936, 0.1318795382976532, 0.11941848695278168, 0.12772585451602936, 0.08722741156816483, 0.12980270385742188, 0.0, 0.0, 0.0, 0.0, 0.0, 0.0, 0.0, 0.0, 0.0, 0.0, 0.0, 0.0, 0.0, 0.0, 0.0, 0.0, 0.0, 0.0, 0.0, 0.0, 0.0, 0.0, 0.0, 0.0, 0.0, 0.0, 0.0, 0.0, 0.0, 0.0, 0.0, 0.0, 0.0, 0.0, 0.0, 0.0, 0.0, 0.0, 0.0, 0.0, 0.0, 0.0, 0.0, 0.0, 0.0, 0.0, 0.0, 0.0, 0.0, 0.0, 0.0, 0.0, 0.0, 0.0, 0.0, 0.0, 0.0, 0.0, 0.0, 0.0, 0.0, 0.0, 0.0, 0.0, 0.0, 0.0, 0.0, 0.0, 0.0, 0.0, 0.0, 0.0, 0.0, 0.0, 0.0, 0.0, 0.0, 0.0, 0.0, 0.0, 0.0, 0.0, 0.0, 0.0, 0.0, 0.0, 0.0, 0.0, 0.0, 0.0, 0.0, 0.0, 0.0, 0.0, 0.0, 0.0, 0.0, 0.0, 0.0, 0.0, 0.0, 0.0, 0.0, 0.0, 0.0, 0.0, 0.0, 0.0, 0.0, 0.0, 0.0, 0.0, 0.0, 0.0, 0.0, 0.0, 0.0, 0.0, 0.0, 0.0, 0.0, 0.0, 0.0, 0.0, 0.0, 0.0, 0.0, 0.0, 1.0]}
02-Oct-19 20:22:27 - INFO : Sent ekg signal message: {"timestamp": "10/02/2019 20:22:27", "signal_values": [0.9252648949623108, 0.43335193395614624, 0.07361963391304016, 0.07919687777757645, 0.13664250075817108, 0.18293362855911255, 0.18293362855911255, 0.18237590789794922, 0.19687674939632416, 0.2035694420337677, 0.21472392976284027, 0.2074735015630722, 0.2074735015630722, 0.23201338946819305, 0.23647518455982208, 0.25543782114982605, 0.24149470031261444, 0.24818739295005798, 0.254322350025177, 0.2744004428386688, 0.28834354877471924, 0.2900167405605316, 0.29838261008262634, 0.3190183937549591, 0.3284997344017029, 0.3424428403377533, 0.33519241213798523, 0.32961517572402954, 0.32180702686309814, 0.3173452317714691, 0.3073062002658844, 0.28109315037727356, 0.26157277822494507, 0.2587841749191284, 0.254322350025177, 0.25320690870285034, 0.23591746389865875, 0.223089799284935, 0.23201338946819305, 0.2253206968307495, 0.223089799284935, 0.21360847353935242, 0.20803123712539673, 0.21249303221702576, 0.21360847353935242, 0.21807026863098145, 0.20858895778656006, 0.2113775759935379, 0.21807026863098145, 0.22866703569889069, 0.22643613815307617, 0.223089799284935, 0.22030116617679596, 0.21974344551563263, 0.22866703569889069, 0.23982152342796326, 0.2604573369026184, 0.2716118097305298, 0.2955939769744873, 0.29447853565216064, 0.30005577206611633, 0.3134411573410034, 0.29224762320518494, 0.25543782114982605, 0.27105408906936646, 0.2716118097305298, 0.22978249192237854, 0.2091466784477234, 0.19687674939632416, 0.17177914083003998, 0.17456775903701782, 0.1645287275314331, 0.15727829933166504, 0.16285555064678192, 0.17289459705352783, 0.152816504240036, 0.06190741807222366, 0.0, 0.11879531294107437, 0.5421081781387329, 1.0, 0.6603457927703857, 0.20412716269493103, 0.014500836841762066, 0.09369771182537079, 0.14835470914840698, 0.1505856066942215, 0.1567205786705017, 0.1723368614912033, 0.18349134922027588, 0.19241495430469513, 0.1935303956270218, 0.1723368614912033, 0.1918572187423706, 0.1974344700574875, 0.20803123712539673, 0.0, 0.0, 0.0, 0.0, 0.0, 0.0, 0.0, 0.0, 0.0, 0.0, 0.0, 0.0, 0.0, 0.0, 0.0, 0.0, 0.0, 0.0, 0.0, 0.0, 0.0, 0.0, 0.0, 0.0, 0.0, 0.0, 0.0, 0.0, 0.0, 0.0, 0.0, 0.0, 0.0, 0.0, 0.0, 0.0, 0.0, 0.0, 0.0, 0.0, 0.0, 0.0, 0.0, 0.0, 0.0, 0.0, 0.0, 0.0, 0.0, 0.0, 0.0, 0.0, 0.0, 0.0, 0.0, 0.0, 0.0, 0.0, 0.0, 0.0, 0.0, 0.0, 0.0, 0.0, 0.0, 0.0, 0.0, 0.0, 0.0, 0.0, 0.0, 0.0, 0.0, 0.0, 0.0, 0.0, 0.0, 0.0, 0.0, 0.0, 0.0, 0.0, 0.0, 0.0, 0.0, 0.0, 0.0, 0.0, 0.0, 0.0, 0.0, 1.0]}
02-Oct-19 20:22:28 - INFO : Sent ekg signal message: {"timestamp": "10/02/2019 20:22:28", "signal_values": [0.9991438388824463, 0.7748287916183472, 0.5222602486610413, 0.2508561611175537, 0.0, 0.06678082048892975, 0.09332191944122314, 0.14469178020954132, 0.15410958230495453, 0.1523972600698471, 0.19006849825382233, 0.17123287916183472, 0.1609589010477066, 0.20291095972061157, 0.14982876181602478, 0.17380136251449585, 0.15753424167633057, 0.1772260218858719, 0.16352739930152893, 0.1780821979045868, 0.22089041769504547, 0.2140410989522934, 0.20890410244464874, 0.20890410244464874, 0.22174657881259918, 0.278253436088562, 0.30136987566947937, 0.32705479860305786, 0.3493150770664215, 0.357876718044281, 0.409246563911438, 0.37928083539009094, 0.4178082048892975, 0.39726027846336365, 0.39897260069847107, 0.43236300349235535, 0.41352739930152893, 0.4006849229335785, 0.37842464447021484, 0.3373287618160248, 0.35273972153663635, 0.3030821979045868, 0.28938356041908264, 0.27311643958091736, 0.26369863748550415, 0.2662671208381653, 0.28167808055877686, 0.2928082048892975, 0.2791095972061157, 0.2422945201396942, 0.2773972749710083, 0.2577054798603058, 0.2577054798603058, 0.232876718044281, 0.2148972600698471, 0.23630136251449585, 0.2140410989522934, 0.2234589010477066, 0.22174657881259918, 0.21061643958091736, 0.22773972153663635, 0.2234589010477066, 0.24828767776489258, 0.3047945201396942, 0.3202054798603058, 0.3904109597206116, 0.36044520139694214, 0.38955479860305786, 0.44349315762519836, 0.4452054798603058, 0.45205479860305786, 0.4015410840511322, 0.3835616409778595, 0.40753424167633057, 0.3416095972061157, 0.3561643958091736, 0.2705479562282562, 0.25599315762519836, 0.26455479860305786, 0.22602739930152893, 0.23373287916183472, 0.21061643958091736, 0.19434931874275208, 0.21917808055877686, 0.22431506216526031, 0.21318493783473969, 0.1960616409778595, 0.204623281955719, 0.17208904027938843, 0.10017123073339462, 0.1155821904540062, 0.25342464447021484, 0.7191780805587769, 1.0, 0.6832191944122314, 0.3955479562282562, 0.10616438090801239, 0.027397260069847107, 0.15325342118740082, 0.17465753853321075, 0.22602739930152893, 0.20976027846336365, 0.2140410989522934, 0.21832191944122314, 0.2140410989522934, 0.23886986076831818, 0.22003424167633057, 0.2397260218858719, 0.2705479562282562, 0.2765410840511322, 0.2919520437717438, 0.2508561611175537, 0.0, 0.0, 0.0, 0.0, 0.0, 0.0, 0.0, 0.0, 0.0, 0.0, 0.0, 0.0, 0.0, 0.0, 0.0, 0.0, 0.0, 0.0, 0.0, 0.0, 0.0, 0.0, 0.0, 0.0, 0.0, 0.0, 0.0, 0.0, 0.0, 0.0, 0.0, 0.0, 0.0, 0.0, 0.0, 0.0, 0.0, 0.0, 0.0, 0.0, 0.0, 0.0, 0.0, 0.0, 0.0, 0.0, 0.0, 0.0, 0.0, 0.0, 0.0, 0.0, 0.0, 0.0, 0.0, 0.0, 0.0, 0.0, 0.0, 0.0, 0.0, 0.0, 0.0, 0.0, 0.0, 0.0, 0.0, 0.0, 0.0, 0.0, 0.0, 0.0, 0.0, 0.0, 0.0, 1.0]}
02-Oct-19 20:22:29 - INFO : Sent ekg signal message: {"timestamp": "10/02/2019 20:22:29", "signal_values": [1.0, 0.8714523911476135, 0.6783528327941895, 0.35726210474967957, 0.05119643732905388, 0.0, 0.0907067358493805, 0.1424596607685089, 0.13856427371501923, 0.18530884385108948, 0.15525875985622406, 0.16082359850406647, 0.18475235998630524, 0.16750138998031616, 0.19977740943431854, 0.18085698783397675, 0.1747356653213501, 0.20255982875823975, 0.18252643942832947, 0.21925431489944458, 0.21202003955841064, 0.2086811363697052, 0.23928770422935486, 0.21368947625160217, 0.25431275367736816, 0.23594880104064941, 0.24819143116474152, 0.2776850163936615, 0.2559821903705597, 0.29604896903038025, 0.27824151515960693, 0.28380635380744934, 0.3105175197124481, 0.2804674506187439, 0.31496939063072205, 0.2860322892665863, 0.2821368873119354, 0.27712854743003845, 0.2342793494462967, 0.25820812582969666, 0.20534223318099976, 0.19476905465126038, 0.19476905465126038, 0.16360600292682648, 0.1925431340932846, 0.1613800823688507, 0.16026711463928223, 0.17807456851005554, 0.15136338770389557, 0.17362269759178162, 0.15414579212665558, 0.15748469531536102, 0.17640511691570282, 0.15525875985622406, 0.18920423090457916, 0.16750138998031616, 0.16750138998031616, 0.18586532771587372, 0.16583193838596344, 0.19532553851604462, 0.17250974476337433, 0.184195876121521, 0.19309960305690765, 0.16304953396320343, 0.19755147397518158, 0.16360600292682648, 0.1624930500984192, 0.17918753623962402, 0.14802448451519012, 0.18753477931022644, 0.15414579212665558, 0.15692821145057678, 0.16972732543945312, 0.14802448451519012, 0.17417918145656586, 0.14579854905605316, 0.14969393610954285, 0.15748469531536102, 0.13912075757980347, 0.16861435770988464, 0.14412909746170044, 0.13578185439109802, 0.15692821145057678, 0.13244296610355377, 0.17529214918613434, 0.13188648223876953, 0.14023372530937195, 0.1502504199743271, 0.124652199447155, 0.1652754545211792, 0.13077351450920105, 0.13466888666152954, 0.1435726135969162, 0.124652199447155, 0.16416248679161072, 0.1274346113204956, 0.15804117918014526, 0.18809126317501068, 0.16583193838596344, 0.21758486330509186, 0.19309960305690765, 0.24707846343517303, 0.28102391958236694, 0.23094046115875244, 0.2531997859477997, 0.1624930500984192, 0.18196995556354523, 0.16638842225074768, 0.10740122199058533, 0.13355593383312225, 0.09571508318185806, 0.102949358522892, 0.11574847251176834, 0.09682804346084595, 0.11853088438510895, 0.06844741106033325, 0.024485252797603607, 0.14691151678562164, 0.3617139756679535, 0.7089594006538391, 0.9660545587539673, 0.8953812122344971, 0.6427379250526428, 0.3266555368900299, 0.060100167989730835, 0.018363939598202705, 0.09404563158750534, 0.14802448451519012, 0.14691151678562164, 0.1992209255695343, 0.15692821145057678, 0.16861435770988464, 0.19087368249893188, 0.17028380930423737, 0.20367278158664703, 0.17529214918613434, 0.1936560869216919, 0.2153589278459549, 0.18586532771587372, 0.22314968705177307, 0.2020033448934555, 0.21313299238681793, 0.227601557970047, 0.0, 0.0, 0.0, 0.0, 0.0, 0.0, 0.0, 0.0, 0.0, 0.0, 0.0, 0.0, 0.0, 0.0, 0.0, 0.0, 0.0, 0.0, 0.0, 0.0, 0.0, 0.0, 0.0, 0.0, 0.0, 0.0, 0.0, 0.0, 0.0, 0.0, 0.0, 0.0, 0.0, 0.0, 0.0, 0.0, 0.0, 0.0, 0.0, 0.0, 0.0, 0.0, 0.0, 0.0, 1.0]}
02-Oct-19 20:22:30 - INFO : Sent ekg signal message: {"timestamp": "10/02/2019 20:22:30", "signal_values": [1.0, 0.729629635810852, 0.5833333134651184, 0.35092592239379883, 0.2796296179294586, 0.3212963044643402, 0.26759257912635803, 0.22962963581085205, 0.21851852536201477, 0.20370370149612427, 0.2361111044883728, 0.2074074000120163, 0.22592592239379883, 0.21296297013759613, 0.2101851850748062, 0.2620370388031006, 0.2212962955236435, 0.21759259700775146, 0.2083333283662796, 0.25, 0.24351851642131805, 0.21759259700775146, 0.24722221493721008, 0.20185184478759766, 0.1796296238899231, 0.17685185372829437, 0.1527777761220932, 0.1546296328306198, 0.16203702986240387, 0.17685185372829437, 0.10462962836027145, 0.13518518209457397, 0.11574073880910873, 0.0972222238779068, 0.05277777835726738, 0.015740741044282913, 0.0027777778450399637, 0.026851851493120193, 0.0, 0.012037036940455437, 0.03611111268401146, 0.03703703731298447, 0.0833333358168602, 0.10740740597248077, 0.1240740716457367, 0.1527777761220932, 0.1259259283542633, 0.14722222089767456, 0.17314815521240234, 0.18611110746860504, 0.21666666865348816, 0.17037037014961243, 0.19629628956317902, 0.20648148655891418, 0.1814814805984497, 0.18611110746860504, 0.1953703761100769, 0.20000000298023224, 0.1657407432794571, 0.19166666269302368, 0.19629628956317902, 0.2537037134170532, 0.2083333283662796, 0.21296297013759613, 0.17870371043682098, 0.2074074000120163, 0.20092593133449554, 0.19629628956317902, 0.2203703671693802, 0.22962963581085205, 0.21759259700775146, 0.24351851642131805, 0.2527777850627899, 0.2527777850627899, 0.24074074625968933, 0.25740739703178406, 0.2907407283782959, 0.2481481432914734, 0.28703704476356506, 0.26851850748062134, 0.28240740299224854, 0.2638888955116272, 0.2527777850627899, 0.2212962955236435, 0.24722221493721008, 0.21203704178333282, 0.21851852536201477, 0.2490740716457367, 0.2231481522321701, 0.23981481790542603, 0.27129629254341125, 0.2509259283542633, 0.2620370388031006, 0.26759257912635803, 0.260185182094574, 0.25833332538604736, 0.24537037312984467, 0.31203705072402954, 0.2935185134410858, 0.2916666567325592, 0.28518518805503845, 0.24722221493721008, 0.3018518388271332, 0.260185182094574, 0.26851850748062134, 0.28425925970077515, 0.2648148238658905, 0.25555557012557983, 0.2657407522201538, 0.2898148000240326, 0.29907408356666565, 0.35555556416511536, 0.364814817905426, 0.4046296179294586, 0.48148149251937866, 0.4879629611968994, 0.5018518567085266, 0.49351853132247925, 0.48055556416511536, 0.4305555522441864, 0.4481481611728668, 0.3231481611728668, 0.3342592716217041, 0.32407405972480774, 0.30092594027519226, 0.2898148000240326, 0.2944444417953491, 0.22685185074806213, 0.13148148357868195, 0.1546296328306198, 0.25648146867752075, 0.7212963104248047, 0.7907407283782959, 0.7990740537643433, 0.6555555462837219, 0.4546296298503876, 0.41111111640930176, 0.3870370388031006, 0.3157407343387604, 0.3222222328186035, 0.30092594027519226, 0.3222222328186035, 0.2907407283782959, 0.2481481432914734, 0.26944443583488464, 0.2944444417953491, 0.29629629850387573, 0.2916666567325592, 0.3092592656612396, 0.3046296238899231, 0.2768518626689911, 0.25925925374031067, 0.3037036955356598, 0.2787036895751953, 0.29907408356666565, 0.3037036955356598, 0.0, 0.0, 0.0, 0.0, 0.0, 0.0, 0.0, 0.0, 0.0, 0.0, 0.0, 0.0, 0.0, 0.0, 0.0, 0.0, 0.0, 0.0, 0.0, 0.0, 0.0, 0.0, 0.0, 0.0, 0.0, 0.0, 0.0, 0.0, 0.0, 0.0, 0.0, 1.0]}
02-Oct-19 20:22:31 - INFO : Sent ekg signal message: {"timestamp": "10/02/2019 20:22:31", "signal_values": [0.9322344064712524, 0.8104395866394043, 0.6275946497917175, 0.42216116189956665, 0.26312577724456787, 0.1459096521139145, 0.10927961021661758, 0.08852259069681168, 0.07997558265924454, 0.07356532663106918, 0.07570207864046097, 0.08577533811330795, 0.07844933122396469, 0.07051282376050949, 0.0793650820851326, 0.057081807404756546, 0.06684982031583786, 0.05616605654358864, 0.06715507060289383, 0.049450550228357315, 0.021062271669507027, 0.0357142873108387, 0.030830280855298042, 0.02747252769768238, 0.03205128386616707, 0.02350427396595478, 0.03998779132962227, 0.03937729075551033, 0.041514042764902115, 0.061050061136484146, 0.07570207864046097, 0.10164835304021835, 0.10622710734605789, 0.13553114235401154, 0.16483516991138458, 0.15628816187381744, 0.1776556819677353, 0.18009768426418304, 0.18711844086647034, 0.18864469230175018, 0.16544567048549652, 0.17307692766189575, 0.16483516991138458, 0.16605617105960846, 0.17490842938423157, 0.15201465785503387, 0.15415140986442566, 0.15506716072559357, 0.1486569046974182, 0.15811966359615326, 0.1517094075679779, 0.15231990814208984, 0.14499390125274658, 0.15201465785503387, 0.1498779058456421, 0.1388888955116272, 0.14560440182685852, 0.14804640412330627, 0.1556776612997055, 0.1596459150314331, 0.14438340067863464, 0.15934066474437714, 0.15995116531848907, 0.15995116531848907, 0.1526251584291458, 0.14499390125274658, 0.16330891847610474, 0.15506716072559357, 0.1596459150314331, 0.1565934121608734, 0.14010989665985107, 0.15140415728092194, 0.16788767278194427, 0.16391941905021667, 0.16208791732788086, 0.1596459150314331, 0.18376068770885468, 0.1617826670408249, 0.1596459150314331, 0.1626984179019928, 0.16330891847610474, 0.16422466933727264, 0.1715506762266159, 0.1675824224948883, 0.16819292306900024, 0.1684981733560562, 0.17124542593955994, 0.18070818483829498, 0.18406593799591064, 0.1895604431629181, 0.18894994258880615, 0.18711844086647034, 0.18772894144058228, 0.18406593799591064, 0.17735043168067932, 0.15018315613269806, 0.15628816187381744, 0.1697191745042801, 0.15598291158676147, 0.1578144133090973, 0.15537241101264954, 0.15750916302204132, 0.17216117680072784, 0.15934066474437714, 0.15506716072559357, 0.1437729001045227, 0.15537241101264954, 0.14529915153980255, 0.14957265555858612, 0.1468254029750824, 0.15109890699386597, 0.1578144133090973, 0.1617826670408249, 0.15598291158676147, 0.1578144133090973, 0.16514042019844055, 0.17704518139362335, 0.22588522732257843, 0.3131868243217468, 0.43284493684768677, 0.6123321056365967, 0.7963980436325073, 0.9884004592895508, 1.0, 0.8107448220252991, 0.6224053502082825, 0.4258241653442383, 0.24725274741649628, 0.13034188747406006, 0.08089133352041245, 0.08089133352041245, 0.0882173404097557, 0.08913309127092361, 0.08882784098386765, 0.09096459299325943, 0.08363858610391617, 0.08608058840036392, 0.08211233466863632, 0.07997558265924454, 0.06868132203817368, 0.05982905998826027, 0.061660561710596085, 0.04670329764485359, 0.036935288459062576, 0.02838827855885029, 0.00976801011711359, 0.013431013561785221, 0.0, 0.0021367522422224283, 0.017094017937779427, 0.002747252816334367, 0.0, 0.0, 0.0, 0.0, 0.0, 0.0, 0.0, 0.0, 0.0, 0.0, 0.0, 0.0, 0.0, 0.0, 0.0, 0.0, 0.0, 0.0, 0.0, 0.0, 0.0, 0.0, 0.0, 0.0, 0.0, 0.0, 0.0, 0.0, 0.0, 0.0, 0.0, 0.0, 0.0, 0.0, 0.0, 0.0, 1.0]}
02-Oct-19 20:22:32 - INFO : Sent ekg signal message: {"timestamp": "10/02/2019 20:22:32", "signal_values": [0.8930976390838623, 0.8468013405799866, 0.8270202279090881, 0.7950336933135986, 0.7946127653121948, 0.7840909361839294, 0.8059764504432678, 0.7984007000923157, 0.7912458181381226, 0.804713785648346, 0.7861952781677246, 0.7777777910232544, 0.7824074029922485, 0.7891414165496826, 0.7874578833580017, 0.7962962985038757, 0.7727272510528564, 0.7790403962135315, 0.8741582632064819, 0.9368686676025391, 1.0, 0.9595959782600403, 0.4734848439693451, 0.02946127951145172, 0.0, 0.3219696879386902, 0.5488215684890747, 0.691077470779419, 0.7146464586257935, 0.7432659864425659, 0.7352693676948547, 0.756313145160675, 0.7710437774658203, 0.7781986594200134, 0.7735690474510193, 0.7310606241226196, 0.7845118045806885, 0.7588383555412292, 0.8055555820465088, 0.7735690474510193, 0.7760942578315735, 0.8093434572219849, 0.7617844939231873, 0.8097643256187439, 0.8059764504432678, 0.7908248901367188, 0.7870370149612427, 0.7786195278167725, 0.7840909361839294, 0.8152356743812561, 0.7954545617103577, 0.7878788113594055, 0.7979797720909119, 0.81144779920578, 0.8287037014961243, 0.7794612646102905, 0.8097643256187439, 0.7727272510528564, 0.7933501601219177, 0.8042929172515869, 0.7638888955116272, 0.75, 0.7626262903213501, 0.7432659864425659, 0.7390572428703308, 0.7483165264129639, 0.7786195278167725, 0.7811447978019714, 0.7689393758773804, 0.8122895359992981, 0.7205387353897095, 0.7933501601219177, 0.0, 0.0, 0.0, 0.0, 0.0, 0.0, 0.0, 0.0, 0.0, 0.0, 0.0, 0.0, 0.0, 0.0, 0.0, 0.0, 0.0, 0.0, 0.0, 0.0, 0.0, 0.0, 0.0, 0.0, 0.0, 0.0, 0.0, 0.0, 0.0, 0.0, 0.0, 0.0, 0.0, 0.0, 0.0, 0.0, 0.0, 0.0, 0.0, 0.0, 0.0, 0.0, 0.0, 0.0, 0.0, 0.0, 0.0, 0.0, 0.0, 0.0, 0.0, 0.0, 0.0, 0.0, 0.0, 0.0, 0.0, 0.0, 0.0, 0.0, 0.0, 0.0, 0.0, 0.0, 0.0, 0.0, 0.0, 0.0, 0.0, 0.0, 0.0, 0.0, 0.0, 0.0, 0.0, 0.0, 0.0, 0.0, 0.0, 0.0, 0.0, 0.0, 0.0, 0.0, 0.0, 0.0, 0.0, 0.0, 0.0, 0.0, 0.0, 0.0, 0.0, 0.0, 0.0, 0.0, 0.0, 0.0, 0.0, 0.0, 0.0, 0.0, 0.0, 0.0, 0.0, 0.0, 0.0, 0.0, 0.0, 0.0, 0.0, 0.0, 0.0, 0.0, 0.0, 1.0]}
02-Oct-19 20:22:33 - INFO : Sent ekg signal message: {"timestamp": "10/02/2019 20:22:33", "signal_values": [0.9240087866783142, 0.6453744769096375, 0.5803964734077454, 0.30671805143356323, 0.15638767182826996, 0.11618942767381668, 0.06057268753647804, 0.017621144652366638, 0.019823787733912468, 0.008259912021458149, 0.002753303851932287, 0.015969162806868553, 0.0, 0.013766519725322723, 0.015969162806868553, 0.014317180961370468, 0.025330396369099617, 0.0044052861630916595, 0.036343611776828766, 0.04350220412015915, 0.046255506575107574, 0.06938326358795166, 0.06222467124462128, 0.09251101315021515, 0.09911894053220749, 0.11013215780258179, 0.14867840707302094, 0.1420704871416092, 0.16079294681549072, 0.15088105201721191, 0.1349118947982788, 0.14537444710731506, 0.11784140765666962, 0.12114537507295609, 0.10737885534763336, 0.09581498056650162, 0.10352423042058945, 0.08590308576822281, 0.09966960549354553, 0.09085903316736221, 0.08039647340774536, 0.09636563807725906, 0.07213656604290009, 0.08975771069526672, 0.08920704573392868, 0.08865638822317123, 0.10737885534763336, 0.08370044082403183, 0.10132158547639847, 0.0930616706609726, 0.0870044082403183, 0.10077092796564102, 0.07819383591413498, 0.08645374327898026, 0.07378854602575302, 0.06442731618881226, 0.08259911835193634, 0.06112334877252579, 0.07819383591413498, 0.07268722355365753, 0.06332599371671677, 0.07709251344203949, 0.05451541766524315, 0.06773127615451813, 0.05671806260943413, 0.049008809030056, 0.07268722355365753, 0.05947136506438255, 0.07984581589698792, 0.07764317095279694, 0.08590308576822281, 0.12940528988838196, 0.15969163179397583, 0.21585902571678162, 0.22246696054935455, 0.24284140765666962, 0.24284140765666962, 0.22522026300430298, 0.21971365809440613, 0.15914097428321838, 0.11674008518457413, 0.11013215780258179, 0.07268722355365753, 0.06607929617166519, 0.05892070382833481, 0.049008809030056, 0.06607929617166519, 0.05231277644634247, 0.037995595484972, 0.05561674013733864, 0.18667401373386383, 0.6024228930473328, 1.0, 0.6701542139053345, 0.5528634190559387, 0.27643170952796936, 0.178964763879776, 0.10737885534763336, 0.07984581589698792, 0.05011013150215149, 0.03689427301287651, 0.05616740137338638, 0.024779735133051872, 0.05011013150215149, 0.037995595484972, 0.04240088164806366, 0.05726872384548187, 0.03359030932188034, 0.05781938508152962, 0.06387665122747421, 0.0649779736995697, 0.0, 0.0, 0.0, 0.0, 0.0, 0.0, 0.0, 0.0, 0.0, 0.0, 0.0, 0.0, 0.0, 0.0, 0.0, 0.0, 0.0, 0.0, 0.0, 0.0, 0.0, 0.0, 0.0, 0.0, 0.0, 0.0, 0.0, 0.0, 0.0, 0.0, 0.0, 0.0, 0.0, 0.0, 0.0, 0.0, 0.0, 0.0, 0.0, 0.0, 0.0, 0.0, 0.0, 0.0, 0.0, 0.0, 0.0, 0.0, 0.0, 0.0, 0.0, 0.0, 0.0, 0.0, 0.0, 0.0, 0.0, 0.0, 0.0, 0.0, 0.0, 0.0, 0.0, 0.0, 0.0, 0.0, 0.0, 0.0, 0.0, 0.0, 0.0, 0.0, 0.0, 0.0, 0.0, 0.0, 1.0]}
02-Oct-19 20:22:34 - INFO : Sent ekg signal message: {"timestamp": "10/02/2019 20:22:34", "signal_values": [1.0, 0.7558726668357849, 0.6111964583396912, 0.48166850209236145, 0.44456639885902405, 0.45620197057724, 0.4535675048828125, 0.44302964210510254, 0.44566410779953003, 0.4417124092578888, 0.4474204182624817, 0.44346871972084045, 0.4452250301837921, 0.44720086455345154, 0.4485180974006653, 0.452030748128891, 0.4447859525680542, 0.4478594958782196, 0.45268934965133667, 0.44763994216918945, 0.4586169123649597, 0.4551042914390564, 0.45839735865592957, 0.46564215421676636, 0.4665203094482422, 0.47815588116645813, 0.4807903468608856, 0.490230530500412, 0.5075740814208984, 0.5051591396331787, 0.5150384306907654, 0.504939615726471, 0.4959385395050049, 0.48847419023513794, 0.4643249213695526, 0.44961580634117126, 0.42854005098342896, 0.4158068001270294, 0.41097694635391235, 0.40021952986717224, 0.3997804522514343, 0.3912184536457062, 0.38990122079849243, 0.3890230655670166, 0.3817782700061798, 0.38529089093208313, 0.3762897849082947, 0.37541162967681885, 0.37738749384880066, 0.36860594153404236, 0.3710208535194397, 0.3668496012687683, 0.36092206835746765, 0.35982435941696167, 0.3541163504123688, 0.35323819518089294, 0.34643247723579407, 0.3385290801525116, 0.3347969353199005, 0.3290889263153076, 0.33106476068496704, 0.319868266582489, 0.31459933519363403, 0.31657519936561584, 0.30779364705085754, 0.3080131709575653, 0.2961580753326416, 0.2911086678504944, 0.29023051261901855, 0.28188803791999817, 0.2843029499053955, 0.27113062143325806, 0.26915478706359863, 0.2689352333545685, 0.2559824287891388, 0.25510427355766296, 0.25115257501602173, 0.24522502720355988, 0.24346871674060822, 0.2338089942932129, 0.23490670323371887, 0.22217343747615814, 0.2166849672794342, 0.21646542847156525, 0.2090010941028595, 0.20922063291072845, 0.19385290145874023, 0.1929747462272644, 0.1909988969564438, 0.18287596106529236, 0.1852908879518509, 0.17585071921348572, 0.17475302517414093, 0.17167946696281433, 0.16158068180084229, 0.16267837584018707, 0.14884741604328156, 0.14840833842754364, 0.15038418769836426, 0.15543359518051147, 0.1723380833864212, 0.1604829877614975, 0.16575191915035248, 0.16706915199756622, 0.1558726727962494, 0.13479693233966827, 0.1284302920103073, 0.10691547393798828, 0.09923161566257477, 0.08737651258707047, 0.07859495282173157, 0.06937431544065475, 0.0665203109383583, 0.06498353183269501, 0.04632272198796272, 0.027881449088454247, 0.0737650915980339, 0.2759604752063751, 0.5407244563102722, 0.4050493836402893, 0.2647639811038971, 0.07266739755868912, 0.03468715772032738, 0.04302963614463806, 0.033150382339954376, 0.0294182226061821, 0.014050493948161602, 0.013172337785363197, 0.011855104006826878, 0.005927552003413439, 0.008122941479086876, 0.0, 0.0, 0.0026344675570726395, 0.0, 0.0, 0.0, 0.0, 0.0, 0.0, 0.0, 0.0, 0.0, 0.0, 0.0, 0.0, 0.0, 0.0, 0.0, 0.0, 0.0, 0.0, 0.0, 0.0, 0.0, 0.0, 0.0, 0.0, 0.0, 0.0, 0.0, 0.0, 0.0, 0.0, 0.0, 0.0, 0.0, 0.0, 0.0, 0.0, 0.0, 0.0, 0.0, 0.0, 0.0, 0.0, 0.0, 0.0, 0.0, 0.0, 0.0, 0.0, 0.0, 0.0, 0.0, 0.0, 0.0, 1.0]}
02-Oct-19 20:22:35 - INFO : Sent ekg signal message: {"timestamp": "10/02/2019 20:22:35", "signal_values": [1.0, 0.61204993724823, 0.20793534815311432, 0.0, 0.008817045949399471, 0.4959588646888733, 0.5775165557861328, 0.6245408058166504, 0.6274797916412354, 0.61204993724823, 0.6326230764389038, 0.6377663612365723, 0.637031614780426, 0.6267450451850891, 0.6326230764389038, 0.6561352014541626, 0.6495224237442017, 0.6745040416717529, 0.6480529308319092, 0.6348273158073425, 0.6833210587501526, 0.6583394408226013, 0.6936076283454895, 0.6891990900039673, 0.6803820729255676, 0.75459223985672, 0.7457751631736755, 0.7582659721374512, 0.747244656085968, 0.7736958265304565, 0.8258633613586426, 0.7861866354942322, 0.8126377463340759, 0.7942689061164856, 0.7839823365211487, 0.7898603677749634, 0.7193240523338318, 0.726671576499939, 0.6458486318588257, 0.6216017603874207, 0.6274797916412354, 0.6069067120552063, 0.6105804443359375, 0.5958853960037231, 0.6142542362213135, 0.6421748995780945, 0.6193975210189819, 0.6083762049674988, 0.5936810970306396, 0.5980896353721619, 0.6465833783149719, 0.6238059997558594, 0.639970600605011, 0.6296840310096741, 0.6245408058166504, 0.6458486318588257, 0.6083762049674988, 0.6465833783149719, 0.6326230764389038, 0.6421748995780945, 0.6473181247711182, 0.6304188370704651, 0.6458486318588257, 0.6113151907920837, 0.6260102987289429, 0.664217472076416, 0.6385011076927185, 0.661278486251831, 0.6105804443359375, 0.6245408058166504, 0.6554004549980164, 0.6135194897651672, 0.6267450451850891, 0.6267450451850891, 0.6171932220458984, 0.6465833783149719, 0.6113151907920837, 0.6223365068435669, 0.612784743309021, 0.615723729133606, 0.643644392490387, 0.6113151907920837, 0.6414400935173035, 0.6171932220458984, 0.6429096460342407, 0.6598089933395386, 0.6274797916412354, 0.639970600605011, 0.6208670139312744, 0.6421748995780945, 0.6656870245933533, 0.6458486318588257, 0.7112417221069336, 0.6943423748016357, 0.7149155139923096, 0.7692872881889343, 0.0, 0.0, 0.0, 0.0, 0.0, 0.0, 0.0, 0.0, 0.0, 0.0, 0.0, 0.0, 0.0, 0.0, 0.0, 0.0, 0.0, 0.0, 0.0, 0.0, 0.0, 0.0, 0.0, 0.0, 0.0, 0.0, 0.0, 0.0, 0.0, 0.0, 0.0, 0.0, 0.0, 0.0, 0.0, 0.0, 0.0, 0.0, 0.0, 0.0, 0.0, 0.0, 0.0, 0.0, 0.0, 0.0, 0.0, 0.0, 0.0, 0.0, 0.0, 0.0, 0.0, 0.0, 0.0, 0.0, 0.0, 0.0, 0.0, 0.0, 0.0, 0.0, 0.0, 0.0, 0.0, 0.0, 0.0, 0.0, 0.0, 0.0, 0.0, 0.0, 0.0, 0.0, 0.0, 0.0, 0.0, 0.0, 0.0, 0.0, 0.0, 0.0, 0.0, 0.0, 0.0, 0.0, 0.0, 0.0, 0.0, 0.0, 0.0, 1.0]}
02-Oct-19 20:22:36 - INFO : Sent ekg signal message: {"timestamp": "10/02/2019 20:22:36", "signal_values": [0.9860638976097107, 0.8076138496398926, 0.25356900691986084, 0.12406526505947113, 0.09449353814125061, 0.05098572373390198, 0.02311352826654911, 0.02617267146706581, 0.009517335332930088, 0.024813052266836166, 0.015975527465343475, 0.019034670665860176, 0.015295716933906078, 0.002379333833232522, 0.01733514666557312, 0.015295716933906078, 0.014955812133848667, 0.02005438506603241, 0.008837525732815266, 0.036029912531375885, 0.03229095786809921, 0.03161114826798439, 0.04248810186982155, 0.03399048373103142, 0.04520734027028084, 0.036029912531375885, 0.04010877013206482, 0.04078857973217964, 0.03670972213149071, 0.04316791146993637, 0.03229095786809921, 0.04010877013206482, 0.05472467839717865, 0.04962610453367233, 0.062202583998441696, 0.06084296479821205, 0.0683208703994751, 0.07579877972602844, 0.047586675733327866, 0.07307954132556915, 0.05540448799729347, 0.056084297597408295, 0.05642420053482056, 0.050305914133787155, 0.07138001173734665, 0.06288239359855652, 0.06458191573619843, 0.0683208703994751, 0.06628143787384033, 0.06628143787384033, 0.06492181867361069, 0.06322229653596878, 0.06696125119924545, 0.053365059196949005, 0.07341944426298141, 0.06798096746206284, 0.053365059196949005, 0.058463629335165024, 0.050305914133787155, 0.05200543999671936, 0.0516655333340168, 0.04962610453367233, 0.05438477173447609, 0.030931338667869568, 0.05438477173447609, 0.038409244269132614, 0.03535010293126106, 0.04962610453367233, 0.029571719467639923, 0.047586675733327866, 0.03365057706832886, 0.039089053869247437, 0.05370496213436127, 0.05472467839717865, 0.06050305813550949, 0.05404486879706383, 0.044867437332868576, 0.061522774398326874, 0.056084297597408295, 0.07851801812648773, 0.06730115413665771, 0.050305914133787155, 0.05404486879706383, 0.047586675733327866, 0.06016315519809723, 0.03976886346936226, 0.018354861065745354, 0.023793337866663933, 0.013596192933619022, 0.030931338667869568, 0.02039428986608982, 0.02311352826654911, 0.027192385867238045, 0.014955812133848667, 0.0, 0.020734194666147232, 0.17743031680583954, 0.47518694400787354, 0.8025152683258057, 1.0, 0.8793337941169739, 0.2899388074874878, 0.12746430933475494, 0.06798096746206284, 0.06764105707406998, 0.02617267146706581, 0.02345343306660652, 0.023793337866663933, 0.011556764133274555, 0.02855200506746769, 0.01019714493304491, 0.010876954533159733, 0.02005438506603241, 0.013256288133561611, 0.02617267146706581, 0.015295716933906078, 0.025152957066893578, 0.03127124533057213, 0.0, 0.0, 0.0, 0.0, 0.0, 0.0, 0.0, 0.0, 0.0, 0.0, 0.0, 0.0, 0.0, 0.0, 0.0, 0.0, 0.0, 0.0, 0.0, 0.0, 0.0, 0.0, 0.0, 0.0, 0.0, 0.0, 0.0, 0.0, 0.0, 0.0, 0.0, 0.0, 0.0, 0.0, 0.0, 0.0, 0.0, 0.0, 0.0, 0.0, 0.0, 0.0, 0.0, 0.0, 0.0, 0.0, 0.0, 0.0, 0.0, 0.0, 0.0, 0.0, 0.0, 0.0, 0.0, 0.0, 0.0, 0.0, 0.0, 0.0, 0.0, 0.0, 0.0, 0.0, 0.0, 0.0, 0.0, 0.0, 0.0, 1.0]}
02-Oct-19 20:22:37 - INFO : Sent ekg signal message: {"timestamp": "10/02/2019 20:22:37", "signal_values": [1.0, 0.8689258098602295, 0.4590792953968048, 0.24616368114948273, 0.1873401552438736, 0.13107417523860931, 0.19117647409439087, 0.19053708016872406, 0.2129155993461609, 0.2557544708251953, 0.20460358262062073, 0.18861892819404602, 0.18158568441867828, 0.20140664279460907, 0.1867007613182068, 0.18030691146850586, 0.21099744737148285, 0.14897698163986206, 0.20524296164512634, 0.1464194357395172, 0.1195652186870575, 0.18542198836803436, 0.14833760261535645, 0.11828644573688507, 0.10997442156076431, 0.09271099418401718, 0.07033248245716095, 0.09462915360927582, 0.09974424540996552, 0.10166240483522415, 0.08503836393356323, 0.09462915360927582, 0.051790282130241394, 0.08184143155813217, 0.09462915360927582, 0.07352941483259201, 0.16496163606643677, 0.1355498731136322, 0.1457800567150116, 0.15792839229106903, 0.15984654426574707, 0.1297954022884369, 0.1668797880411148, 0.2244245558977127, 0.1873401552438736, 0.16240409016609192, 0.1771099716424942, 0.16496163606643677, 0.16496163606643677, 0.2078005075454712, 0.18861892819404602, 0.18478260934352875, 0.16815856099128723, 0.18989770114421844, 0.19629156589508057, 0.14833760261535645, 0.22698210179805756, 0.1924552470445633, 0.20652173459529877, 0.19181585311889648, 0.18478260934352875, 0.2186700701713562, 0.20012786984443665, 0.197570338845253, 0.19629156589508057, 0.2141943722963333, 0.20652173459529877, 0.2295396476984024, 0.29859334230422974, 0.27173912525177, 0.27749359607696533, 0.33503836393356323, 0.34143221378326416, 0.36764705181121826, 0.2877237796783447, 0.2653452754020691, 0.23849104344844818, 0.16048593819141388, 0.14194373786449432, 0.14130434393882751, 0.1515345275402069, 0.15025575459003448, 0.14322251081466675, 0.11764705926179886, 0.10038363188505173, 0.0, 0.035166241228580475, 0.12787723541259766, 0.5338874459266663, 0.8868286609649658, 0.8765984773635864, 0.45524296164512634, 0.1719948798418045, 0.03900255635380745, 0.0019181586103513837, 0.06457800418138504, 0.0888746827840805, 0.07033248245716095, 0.060102302581071854, 0.07416880130767822, 0.0831202045083046, 0.07544756680727005, 0.06585677713155746, 0.03324808180332184, 0.027493605390191078, 0.01982097141444683, 0.0, 0.0, 0.0, 0.0, 0.0, 0.0, 0.0, 0.0, 0.0, 0.0, 0.0, 0.0, 0.0, 0.0, 0.0, 0.0, 0.0, 0.0, 0.0, 0.0, 0.0, 0.0, 0.0, 0.0, 0.0, 0.0, 0.0, 0.0, 0.0, 0.0, 0.0, 0.0, 0.0, 0.0, 0.0, 0.0, 0.0, 0.0, 0.0, 0.0, 0.0, 0.0, 0.0, 0.0, 0.0, 0.0, 0.0, 0.0, 0.0, 0.0, 0.0, 0.0, 0.0, 0.0, 0.0, 0.0, 0.0, 0.0, 0.0, 0.0, 0.0, 0.0, 0.0, 0.0, 0.0, 0.0, 0.0, 0.0, 0.0, 0.0, 0.0, 0.0, 0.0, 0.0, 0.0, 0.0, 0.0, 0.0, 0.0, 0.0, 0.0, 1.0]}
02-Oct-19 20:22:38 - INFO : Sent ekg signal message: {"timestamp": "10/02/2019 20:22:38", "signal_values": [0.9467849135398865, 0.9992609024047852, 0.9911308288574219, 0.9770879745483398, 0.949002206325531, 0.8810051679611206, 0.8484848737716675, 0.795269787311554, 0.758314847946167, 0.6999260783195496, 0.642276406288147, 0.6356245279312134, 0.6193643808364868, 0.6045824289321899, 0.5875831246376038, 0.5831485390663147, 0.591278612613678, 0.5824094414710999, 0.5654101967811584, 0.5668883919715881, 0.5631929039955139, 0.5550628304481506, 0.577235758304596, 0.572062075138092, 0.5831485390663147, 0.5868440270423889, 0.5861049294471741, 0.6067997217178345, 0.6245380640029907, 0.6385809183120728, 0.6444936990737915, 0.632668137550354, 0.6341463327407837, 0.6407982110977173, 0.6075388193130493, 0.6112343072891235, 0.6201034784317017, 0.6319290399551392, 0.6141906976699829, 0.5957132577896118, 0.6023651361465454, 0.6252771615982056, 0.623059868812561, 0.6215816736221313, 0.6016260385513306, 0.5728011727333069, 0.577235758304596, 0.581670343875885, 0.5801921486854553, 0.5764966607093811, 0.5809312462806702, 0.6016260385513306, 0.6178861856460571, 0.6252771615982056, 0.6112343072891235, 0.5838876366615295, 0.5979305505752563, 0.6053215265274048, 0.6319290399551392, 0.6991869807243347, 0.7560975551605225, 0.739098310470581, 0.7812268733978271, 0.7886179089546204, 0.7568366527557373, 0.716925323009491, 0.7235772609710693, 0.6910569071769714, 0.6644493937492371, 0.6053215265274048, 0.5728011727333069, 0.5713229775428772, 0.5668883919715881, 0.5742793679237366, 0.5728011727333069, 0.5713229775428772, 0.591278612613678, 0.7102734446525574, 0.7302291393280029, 0.6252771615982056, 0.795269787311554, 1.0, 0.43458980321884155, 0.0014781965874135494, 0.0, 0.26977089047431946, 0.4885439872741699, 0.5661492943763733, 0.6585366129875183, 0.6577975153923035, 0.6644493937492371, 0.6518846750259399, 0.6585366129875183, 0.0, 0.0, 0.0, 0.0, 0.0, 0.0, 0.0, 0.0, 0.0, 0.0, 0.0, 0.0, 0.0, 0.0, 0.0, 0.0, 0.0, 0.0, 0.0, 0.0, 0.0, 0.0, 0.0, 0.0, 0.0, 0.0, 0.0, 0.0, 0.0, 0.0, 0.0, 0.0, 0.0, 0.0, 0.0, 0.0, 0.0, 0.0, 0.0, 0.0, 0.0, 0.0, 0.0, 0.0, 0.0, 0.0, 0.0, 0.0, 0.0, 0.0, 0.0, 0.0, 0.0, 0.0, 0.0, 0.0, 0.0, 0.0, 0.0, 0.0, 0.0, 0.0, 0.0, 0.0, 0.0, 0.0, 0.0, 0.0, 0.0, 0.0, 0.0, 0.0, 0.0, 0.0, 0.0, 0.0, 0.0, 0.0, 0.0, 0.0, 0.0, 0.0, 0.0, 0.0, 0.0, 0.0, 0.0, 0.0, 0.0, 0.0, 0.0, 0.0, 0.0, 0.0, 1.0]}
02-Oct-19 20:22:39 - INFO : Sent ekg signal message: {"timestamp": "10/02/2019 20:22:39", "signal_values": [1.0, 0.9680589437484741, 0.8992629051208496, 0.85012286901474, 0.8353808522224426, 0.7923833131790161, 0.8452088236808777, 0.815724790096283, 0.7592137455940247, 0.7837837934494019, 0.7886977791786194, 0.5687960982322693, 0.07985258102416992, 0.6769042015075684, 0.9127764105796814, 0.0, 0.07371007651090622, 0.4803439676761627, 0.7137592434883118, 0.8046683073043823, 0.8009827733039856, 0.8464373350143433, 0.8390663266181946, 0.8611793518066406, 0.8832923769950867, 0.8181818127632141, 0.8611793518066406, 0.8820638656616211, 0.8513513803482056, 0.8390663266181946, 0.815724790096283, 0.8476658463478088, 0.8402948379516602, 0.8685503602027893, 0.8574938774108887, 0.815724790096283, 0.859950840473175, 0.7972972989082336, 0.8194103240966797, 0.7960687875747681, 0.726044237613678, 0.7604422569274902, 0.7371007204055786, 0.7162162065505981, 0.8194103240966797, 0.7825552821159363, 0.8587223291397095, 0.837837815284729, 0.8636363744735718, 0.828009843826294, 0.8316953182220459, 0.8230957984924316, 0.8083537817001343, 0.8009827733039856, 0.8230957984924316, 0.789926290512085, 0.7813267707824707, 0.7825552821159363, 0.7923833131790161, 0.8366093635559082, 0.8243243098258972, 0.8550368547439575, 0.8181818127632141, 0.8415233492851257, 0.834152340888977, 0.8144963383674622, 0.8108108043670654, 0.812039315700531, 0.8255528211593628, 0.0, 0.0, 0.0, 0.0, 0.0, 0.0, 0.0, 0.0, 0.0, 0.0, 0.0, 0.0, 0.0, 0.0, 0.0, 0.0, 0.0, 0.0, 0.0, 0.0, 0.0, 0.0, 0.0, 0.0, 0.0, 0.0, 0.0, 0.0, 0.0, 0.0, 0.0, 0.0, 0.0, 0.0, 0.0, 0.0, 0.0, 0.0, 0.0, 0.0, 0.0, 0.0, 0.0, 0.0, 0.0, 0.0, 0.0, 0.0, 0.0, 0.0, 0.0, 0.0, 0.0, 0.0, 0.0, 0.0, 0.0, 0.0, 0.0, 0.0, 0.0, 0.0, 0.0, 0.0, 0.0, 0.0, 0.0, 0.0, 0.0, 0.0, 0.0, 0.0, 0.0, 0.0, 0.0, 0.0, 0.0, 0.0, 0.0, 0.0, 0.0, 0.0, 0.0, 0.0, 0.0, 0.0, 0.0, 0.0, 0.0, 0.0, 0.0, 0.0, 0.0, 0.0, 0.0, 0.0, 0.0, 0.0, 0.0, 0.0, 0.0, 0.0, 0.0, 0.0, 0.0, 0.0, 0.0, 0.0, 0.0, 0.0, 0.0, 0.0, 0.0, 0.0, 0.0, 0.0, 0.0, 0.0, 1.0]}
02-Oct-19 20:22:40 - INFO : Sent ekg signal message: {"timestamp": "10/02/2019 20:22:40", "signal_values": [1.0, 0.47010308504104614, 0.0, 0.1951889991760254, 0.3443298935890198, 0.31477662920951843, 0.30927833914756775, 0.31890034675598145, 0.32302406430244446, 0.3175257742404938, 0.3443298935890198, 0.34982818365097046, 0.36701029539108276, 0.35189002752304077, 0.3807560205459595, 0.3945017158985138, 0.40687283873558044, 0.4158075749874115, 0.41512027382850647, 0.4542955458164215, 0.4632302522659302, 0.47766321897506714, 0.5120275020599365, 0.5285223126411438, 0.5690721869468689, 0.5896907448768616, 0.6151202917098999, 0.6192439794540405, 0.6164948344230652, 0.6109965443611145, 0.5910652875900269, 0.5498281717300415, 0.4962199330329895, 0.44536083936691284, 0.39381444454193115, 0.3546391725540161, 0.32508590817451477, 0.2907216548919678, 0.2680412232875824, 0.2701030969619751, 0.27285224199295044, 0.2852233648300171, 0.28041237592697144, 0.2659793794155121, 0.25773194432258606, 0.2701030969619751, 0.27147766947746277, 0.2735395133495331, 0.2625429630279541, 0.25360825657844543, 0.26323023438453674, 0.2618556618690491, 0.24810996651649475, 0.23917526006698608, 0.24604810774326324, 0.24261167645454407, 0.2412371188402176, 0.23024055361747742, 0.2281786948442459, 0.22268041968345642, 0.2281786948442459, 0.2316151261329651, 0.22955326735973358, 0.21374569833278656, 0.22336769104003906, 0.22130584716796875, 0.2432989627122879, 0.26529210805892944, 0.2756013870239258, 0.3044673502445221, 0.33814433217048645, 0.3793814480304718, 0.3965635597705841, 0.3663230240345001, 0.29621994495391846, 0.27147766947746277, 0.25567010045051575, 0.20756013691425323, 0.16769759356975555, 0.15395188331604004, 0.14845360815525055, 0.1512027531862259, 0.13883161544799805, 0.11271477490663528, 0.020618556067347527, 0.07628866285085678, 0.07216494530439377, 0.4020618498325348, 0.984879732131958, 0.3546391725540161, 0.024054983630776405, 0.20343641936779022, 0.27903780341148376, 0.24054983258247375, 0.24742268025875092, 0.2357388287782669, 0.2487972527742386, 0.26735395193099976, 0.2542955279350281, 0.2584192454814911, 0.27285224199295044, 0.28797250986099243, 0.28659793734550476, 0.30584192276000977, 0.31134021282196045, 0.0, 0.0, 0.0, 0.0, 0.0, 0.0, 0.0, 0.0, 0.0, 0.0, 0.0, 0.0, 0.0, 0.0, 0.0, 0.0, 0.0, 0.0, 0.0, 0.0, 0.0, 0.0, 0.0, 0.0, 0.0, 0.0, 0.0, 0.0, 0.0, 0.0, 0.0, 0.0, 0.0, 0.0, 0.0, 0.0, 0.0, 0.0, 0.0, 0.0, 0.0, 0.0, 0.0, 0.0, 0.0, 0.0, 0.0, 0.0, 0.0, 0.0, 0.0, 0.0, 0.0, 0.0, 0.0, 0.0, 0.0, 0.0, 0.0, 0.0, 0.0, 0.0, 0.0, 0.0, 0.0, 0.0, 0.0, 0.0, 0.0, 0.0, 0.0, 0.0, 0.0, 0.0, 0.0, 0.0, 0.0, 0.0, 0.0, 0.0, 0.0, 0.0, 1.0]}
02-Oct-19 20:22:41 - INFO : Sent ekg signal message: {"timestamp": "10/02/2019 20:22:41", "signal_values": [1.0, 0.9223343729972839, 0.6941640973091125, 0.3677051365375519, 0.17112769186496735, 0.16498464345932007, 0.06143045052886009, 0.04431768134236336, 0.02501096948981285, 0.021061869338154793, 0.008336990140378475, 0.01404124591499567, 0.018429135903716087, 0.029837647452950478, 0.03729705885052681, 0.03554190322756767, 0.03905221447348595, 0.040807370096445084, 0.054409828037023544, 0.06011408567428589, 0.05792013928294182, 0.07371654361486435, 0.08249232172966003, 0.09916630387306213, 0.11978938430547714, 0.13690215349197388, 0.1588415950536728, 0.1794646829366684, 0.19833260774612427, 0.21237385272979736, 0.19964896142482758, 0.21325142681598663, 0.21061868965625763, 0.1987713873386383, 0.18165862560272217, 0.17068889737129211, 0.1562088578939438, 0.11759543418884277, 0.10706450045108795, 0.0960947796702385, 0.09916630387306213, 0.07064501941204071, 0.06230802834033966, 0.07503291219472885, 0.06976744532585144, 0.06976744532585144, 0.07459411770105362, 0.06230802834033966, 0.0666959211230278, 0.07152260094881058, 0.06143045052886009, 0.06713470816612244, 0.05923650786280632, 0.0666959211230278, 0.05748135223984718, 0.05835893005132675, 0.05397104099392891, 0.04914436116814613, 0.05265467241406441, 0.05397104099392891, 0.03949100524187088, 0.059675294905900955, 0.04782799631357193, 0.045195262879133224, 0.042123738676309586, 0.039929792284965515, 0.04607284069061279, 0.043001316487789154, 0.03554190322756767, 0.033786747604608536, 0.03641948103904724, 0.042123738676309586, 0.02281702496111393, 0.04695041850209236, 0.04256252571940422, 0.04168494790792465, 0.035980693995952606, 0.030276436358690262, 0.03510311618447304, 0.045195262879133224, 0.03905221447348595, 0.042123738676309586, 0.029398858547210693, 0.030715225264430046, 0.04036858305335045, 0.04124616086483002, 0.036858271807432175, 0.034664325416088104, 0.03861342743039131, 0.04431768134236336, 0.05879771709442139, 0.07591048628091812, 0.07898201048374176, 0.10311540216207504, 0.1320754736661911, 0.12856516242027283, 0.15796402096748352, 0.12856516242027283, 0.12022817134857178, 0.07722685486078262, 0.07678806781768799, 0.08117595314979553, 0.048266783356666565, 0.024572180584073067, 0.026327336207032204, 0.02062308043241501, 0.021500658243894577, 0.0057042562402784824, 0.010092145763337612, 0.008336990140378475, 0.020184291526675224, 0.013163668103516102, 0.0, 0.12110574543476105, 0.2983764708042145, 0.5559455752372742, 0.9324265122413635, 0.9227731227874756, 0.6880210638046265, 0.382185161113739, 0.15401491522789001, 0.16586221754550934, 0.07327775657176971, 0.04914436116814613, 0.0320315919816494, 0.028521280735731125, 0.023694602772593498, 0.01404124591499567, 0.015796402469277382, 0.01886792480945587, 0.036858271807432175, 0.03247038275003433, 0.035980693995952606, 0.031592804938554764, 0.030276436358690262, 0.045195262879133224, 0.05616498365998268, 0.0, 0.0, 0.0, 0.0, 0.0, 0.0, 0.0, 0.0, 0.0, 0.0, 0.0, 0.0, 0.0, 0.0, 0.0, 0.0, 0.0, 0.0, 0.0, 0.0, 0.0, 0.0, 0.0, 0.0, 0.0, 0.0, 0.0, 0.0, 0.0, 0.0, 0.0, 0.0, 0.0, 0.0, 0.0, 0.0, 0.0, 0.0, 0.0, 0.0, 0.0, 0.0, 0.0, 0.0, 0.0, 0.0, 0.0, 0.0, 0.0, 0.0, 1.0]}
02-Oct-19 20:22:42 - INFO : Sent ekg signal message: {"timestamp": "10/02/2019 20:22:42", "signal_values": [0.924941897392273, 1.0, 0.6665559411048889, 0.3839256167411804, 0.2663567066192627, 0.30488210916519165, 0.2723347842693329, 0.28429093956947327, 0.2749916911125183, 0.2733311057090759, 0.2879441976547241, 0.26104283332824707, 0.27000996470451355, 0.271006315946579, 0.2620391845703125, 0.2779807448387146, 0.2577216923236847, 0.2646961212158203, 0.26536035537719727, 0.2646961212158203, 0.2779807448387146, 0.2550647556781769, 0.2646961212158203, 0.2766522765159607, 0.26868149638175964, 0.29026901721954346, 0.2720026671886444, 0.2763201594352722, 0.26834937930107117, 0.2590501606464386, 0.26536035537719727, 0.2460976392030716, 0.24975091218948364, 0.2431086003780365, 0.21720358729362488, 0.22783128917217255, 0.20425108075141907, 0.21321819722652435, 0.2152108997106552, 0.21188974380493164, 0.21653935313224792, 0.18565261363983154, 0.2039189636707306, 0.2065758854150772, 0.19727665185928345, 0.21587511897087097, 0.19129857420921326, 0.19760876893997192, 0.20059780776500702, 0.1876453012228012, 0.19461973011493683, 0.17236799001693726, 0.17502491176128387, 0.18133510649204254, 0.1733643263578415, 0.1776818335056305, 0.15376950800418854, 0.15675854682922363, 0.15642642974853516, 0.1484556645154953, 0.16240452229976654, 0.1325141191482544, 0.14181335270404816, 0.1411491185426712, 0.12487545609474182, 0.13782796263694763, 0.10727333277463913, 0.11690468341112137, 0.11424776166677475, 0.1032879427075386, 0.12421122193336487, 0.11723680049180984, 0.13915643095970154, 0.13915643095970154, 0.12620392441749573, 0.1557622104883194, 0.14911989867687225, 0.15742278099060059, 0.17568914592266083, 0.13018929958343506, 0.1222185343503952, 0.07173696160316467, 0.08203254640102386, 0.07240119576454163, 0.04848887398838997, 0.059448689222335815, 0.03321155905723572, 0.03885752335190773, 0.039521753787994385, 0.027565592899918556, 0.037196945399045944, 0.025240784510970116, 0.033543672412633896, 0.038193292915821075, 0.004981733858585358, 0.020259050652384758, 0.14081700146198273, 0.3699767589569092, 0.6476253867149353, 0.8020591139793396, 0.5453338027000427, 0.15310527384281158, 0.039521753787994385, 0.04450348764657974, 0.03454001992940903, 0.04483560100197792, 0.017934240400791168, 0.02125539630651474, 0.0305546335875988, 0.017270009964704514, 0.02723347768187523, 0.008967120200395584, 0.012288276106119156, 0.0152773167937994, 0.003985386807471514, 0.01992693543434143, 0.0, 0.0, 0.0, 0.0, 0.0, 0.0, 0.0, 0.0, 0.0, 0.0, 0.0, 0.0, 0.0, 0.0, 0.0, 0.0, 0.0, 0.0, 0.0, 0.0, 0.0, 0.0, 0.0, 0.0, 0.0, 0.0, 0.0, 0.0, 0.0, 0.0, 0.0, 0.0, 0.0, 0.0, 0.0, 0.0, 0.0, 0.0, 0.0, 0.0, 0.0, 0.0, 0.0, 0.0, 0.0, 0.0, 0.0, 0.0, 0.0, 0.0, 0.0, 0.0, 0.0, 0.0, 0.0, 0.0, 0.0, 0.0, 0.0, 0.0, 0.0, 0.0, 0.0, 0.0, 0.0, 0.0, 0.0, 0.0, 0.0, 0.0, 0.0, 1.0]}
02-Oct-19 20:22:43 - INFO : Sent ekg signal message: {"timestamp": "10/02/2019 20:22:43", "signal_values": [1.0, 0.6577617526054382, 0.3826714754104614, 0.33140793442726135, 0.2173285186290741, 0.1090252697467804, 0.08303248882293701, 0.04332130029797554, 0.03754512593150139, 0.06137184053659439, 0.03826714679598808, 0.036823105067014694, 0.07797834277153015, 0.07509025186300278, 0.07725631445646286, 0.07075811922550201, 0.06787003576755524, 0.09747292101383209, 0.09314079582691193, 0.11552346497774124, 0.10036101192235947, 0.12346570193767548, 0.1574007272720337, 0.1314079463481903, 0.1682310402393341, 0.18628159165382385, 0.19711191952228546, 0.22310470044612885, 0.22021660208702087, 0.2288808673620224, 0.23176895081996918, 0.24693140387535095, 0.22238266468048096, 0.23682311177253723, 0.1812274307012558, 0.16245487332344055, 0.13574007153511047, 0.07581227272748947, 0.057039711624383926, 0.049819495528936386, 0.053429603576660156, 0.0714801475405693, 0.06931407749652863, 0.05776173248887062, 0.09819494932889938, 0.1205776184797287, 0.09458483755588531, 0.12563176453113556, 0.11407942324876785, 0.11407942324876785, 0.09314079582691193, 0.1090252697467804, 0.10469313710927963, 0.09241877496242523, 0.08158844709396362, 0.09025270491838455, 0.07075811922550201, 0.06570397317409515, 0.05415162444114685, 0.06787003576755524, 0.06642599403858185, 0.07364621013402939, 0.06498195230960846, 0.062093861401081085, 0.07075811922550201, 0.07075811922550201, 0.0483754500746727, 0.054873645305633545, 0.06787003576755524, 0.03249097615480423, 0.072202168405056, 0.05631769075989723, 0.03537905961275101, 0.033212997019290924, 0.042599279433488846, 0.031046930700540543, 0.058483753353357315, 0.05415162444114685, 0.019494585692882538, 0.05270758271217346, 0.08303248882293701, 0.12851986289024353, 0.16606497764587402, 0.13862815499305725, 0.20866425335407257, 0.22093862295150757, 0.18989169597625732, 0.22599278390407562, 0.22599278390407562, 0.17761732637882233, 0.12490974366664886, 0.07942238450050354, 0.042599279433488846, 0.03754512593150139, 0.028158845379948616, 0.009386281482875347, 0.019494585692882538, 0.004332129843533039, 0.0028880867175757885, 0.0, 0.023826714605093002, 0.12707580626010895, 0.36534297466278076, 0.6281588673591614, 0.974007248878479, 0.6317689418792725, 0.3631768822669983, 0.28158843517303467, 0.20000000298023224, 0.1328519880771637, 0.06859205663204193, 0.06787003576755524, 0.05920577794313431, 0.04909747466444969, 0.054873645305633545, 0.05415162444114685, 0.0729241892695427, 0.072202168405056, 0.07364621013402939, 0.08736462146043777, 0.09386281669139862, 0.1212996393442154, 0.13429602980613708, 0.14801444113254547, 0.12996390461921692, 0.14945848286151886, 0.0, 0.0, 0.0, 0.0, 0.0, 0.0, 0.0, 0.0, 0.0, 0.0, 0.0, 0.0, 0.0, 0.0, 0.0, 0.0, 0.0, 0.0, 0.0, 0.0, 0.0, 0.0, 0.0, 0.0, 0.0, 0.0, 0.0, 0.0, 0.0, 0.0, 0.0, 0.0, 0.0, 0.0, 0.0, 0.0, 0.0, 0.0, 0.0, 0.0, 0.0, 0.0, 0.0, 0.0, 0.0, 0.0, 0.0, 0.0, 0.0, 0.0, 0.0, 0.0, 0.0, 0.0, 0.0, 0.0, 0.0, 0.0, 0.0, 0.0, 0.0, 1.0]}
02-Oct-19 20:22:44 - INFO : Sent ekg signal message: {"timestamp": "10/02/2019 20:22:44", "signal_values": [0.9802555441856384, 0.8751451969146729, 0.5174216032028198, 0.32926830649375916, 0.24970963597297668, 0.15098722279071808, 0.10627177357673645, 0.05865272879600525, 0.048199769109487534, 0.03658536449074745, 0.03252032399177551, 0.02671312354505062, 0.03077816404402256, 0.02961672469973564, 0.024390242993831635, 0.022648083046078682, 0.029036004096269608, 0.02671312354505062, 0.022648083046078682, 0.022067364305257797, 0.017421603202819824, 0.018583042547106743, 0.018583042547106743, 0.021486643701791763, 0.029036004096269608, 0.02671312354505062, 0.03774680569767952, 0.04471544548869133, 0.04471544548869133, 0.0476190485060215, 0.05458768829703331, 0.0662020891904831, 0.0696864128112793, 0.07259000837802887, 0.06271777302026749, 0.05981417000293732, 0.060975611209869385, 0.05749128758907318, 0.0493612065911293, 0.05981417000293732, 0.056910570710897446, 0.05923344939947128, 0.0662020891904831, 0.06562136858701706, 0.0476190485060215, 0.04297328740358353, 0.05342624709010124, 0.05168408900499344, 0.034262485802173615, 0.044134728610515594, 0.04878048598766327, 0.04297328740358353, 0.04297328740358353, 0.03077816404402256, 0.03368176519870758, 0.04065040498971939, 0.04878048598766327, 0.06387920677661896, 0.05865272879600525, 0.062137048691511154, 0.07084785401821136, 0.08130080997943878, 0.07665505260229111, 0.07839721441268921, 0.07549361139535904, 0.08478513360023499, 0.07549361139535904, 0.07026713341474533, 0.0696864128112793, 0.07026713341474533, 0.0662020891904831, 0.07026713341474533, 0.06910569220781326, 0.058072008192539215, 0.06329849362373352, 0.06445992738008499, 0.05342624709010124, 0.055168408900499344, 0.05052264779806137, 0.0458768866956234, 0.037166085094213486, 0.048199769109487534, 0.05052264779806137, 0.04239256680011749, 0.062137048691511154, 0.054006967693567276, 0.0476190485060215, 0.041231125593185425, 0.04355400800704956, 0.04355400800704956, 0.04355400800704956, 0.040069688111543655, 0.03368176519870758, 0.0493612065911293, 0.06271777302026749, 0.058072008192539215, 0.05052264779806137, 0.05284553021192551, 0.055168408900499344, 0.09407665580511093, 0.08768873661756516, 0.09988385438919067, 0.11788617819547653, 0.09233449399471283, 0.0679442510008812, 0.07897793501615524, 0.04065040498971939, 0.03774680569767952, 0.02961672469973564, 0.02961672469973564, 0.037166085094213486, 0.040069688111543655, 0.05632985010743141, 0.03193960338830948, 0.02090592309832573, 0.041231125593185425, 0.04355400800704956, 0.037166085094213486, 0.027293844148516655, 0.0, 0.0662020891904831, 0.2804878056049347, 0.6591172814369202, 1.0, 0.9332171678543091, 0.6126596927642822, 0.41056910157203674, 0.28687572479248047, 0.20847851037979126, 0.1463414579629898, 0.08710801601409912, 0.08536585420370102, 0.05284553021192551, 0.060975611209869385, 0.05923344939947128, 0.05865272879600525, 0.05226480960845947, 0.04878048598766327, 0.045296166092157364, 0.04471544548869133, 0.047038327902555466, 0.04994192719459534, 0.03252032399177551, 0.05342624709010124, 0.04355400800704956, 0.0476190485060215, 0.054006967693567276, 0.06329849362373352, 0.060975611209869385, 0.06271777302026749, 0.06039489060640335, 0.07259000837802887, 0.07026713341474533, 0.08420441299676895, 0.08246225118637085, 0.07549361139535904, 0.0, 0.0, 0.0, 0.0, 0.0, 0.0, 0.0, 0.0, 0.0, 0.0, 0.0, 0.0, 0.0, 0.0, 0.0, 0.0, 0.0, 0.0, 0.0, 0.0, 0.0, 0.0, 0.0, 0.0, 0.0, 0.0, 0.0, 0.0, 0.0, 0.0, 0.0, 1.0]}
02-Oct-19 20:22:45 - INFO : Sent ekg signal message: {"timestamp": "10/02/2019 20:22:45", "signal_values": [1.0, 0.7919303774833679, 0.27136075496673584, 0.16297468543052673, 0.09968354552984238, 0.0680379718542099, 0.13132911920547485, 0.18670886754989624, 0.1946202516555786, 0.1985759437084198, 0.21993671357631683, 0.21439872682094574, 0.2041139304637909, 0.20886075496673584, 0.19066455960273743, 0.20490506291389465, 0.1946202516555786, 0.17721518874168396, 0.1859177201986313, 0.1748417764902115, 0.17325949668884277, 0.17958860099315643, 0.1653480976819992, 0.16693037748336792, 0.17879746854305267, 0.17167721688747406, 0.18117088079452515, 0.1780063360929489, 0.16772152483463287, 0.15506328642368317, 0.15189872682094574, 0.15585443377494812, 0.13844937086105347, 0.14082278311252594, 0.13844937086105347, 0.11867088824510574, 0.13370253145694733, 0.14636075496673584, 0.16455696523189545, 0.20174050331115723, 0.2112341821193695, 0.25474682450294495, 0.25237342715263367, 0.27689874172210693, 0.2761076092720032, 0.2705696225166321, 0.265031635761261, 0.28955695033073425, 0.29509493708610535, 0.2808544337749481, 0.2761076092720032, 0.2721518874168396, 0.2808544337749481, 0.27452531456947327, 0.3069620132446289, 0.2943038046360016, 0.28560125827789307, 0.29509493708610535, 0.2776898741722107, 0.2887658178806305, 0.2689873278141022, 0.31487342715263367, 0.3156645596027374, 0.3085443079471588, 0.3085443079471588, 0.31487342715263367, 0.3156645596027374, 0.31170886754989624, 0.297468364238739, 0.2927215099334717, 0.3014240562915802, 0.30617088079452515, 0.2998417615890503, 0.2919303774833679, 0.3053797483444214, 0.31012657284736633, 0.3093354403972626, 0.3212025463581085, 0.2927215099334717, 0.3030063211917877, 0.29905062913894653, 0.31012657284736633, 0.297468364238739, 0.28401899337768555, 0.3125, 0.2832278609275818, 0.2776898741722107, 0.29509493708610535, 0.297468364238739, 0.26582279801368713, 0.26344937086105347, 0.2689873278141022, 0.27848100662231445, 0.2681961953639984, 0.25632911920547485, 0.2689873278141022, 0.2761076092720032, 0.27848100662231445, 0.27452531456947327, 0.26344937086105347, 0.27452531456947327, 0.2697784900665283, 0.2642405033111572, 0.24920886754989624, 0.2816455662250519, 0.2761076092720032, 0.2705696225166321, 0.28401899337768555, 0.2428797483444214, 0.2705696225166321, 0.2776898741722107, 0.30221518874168396, 0.3639240562915802, 0.3947784900665283, 0.4810126721858978, 0.4810126721858978, 0.5672468543052673, 0.6147152185440063, 0.5767405033111572, 0.5261076092720032, 0.4501582384109497, 0.400316447019577, 0.3718354403972626, 0.3109177350997925, 0.2594936788082123, 0.2626582384109497, 0.2428797483444214, 0.25474682450294495, 0.27136075496673584, 0.25237342715263367, 0.26186707615852356, 0.23971518874168396, 0.16693037748336792, 0.15031646192073822, 0.4541139304637909, 0.9042721390724182, 0.7041139006614685, 0.16297468543052673, 0.13528481125831604, 0.0, 0.0514240488409996, 0.08939873427152634, 0.13924050331115723, 0.1542721539735794, 0.1780063360929489, 0.1653480976819992, 0.1598101258277893, 0.16455696523189545, 0.1582278460264206, 0.15901899337768555, 0.14952531456947327, 0.1487341821193695, 0.14398734271526337, 0.14556962251663208, 0.1431961953639984, 0.14556962251663208, 0.14003165066242218, 0.1321202516555786, 0.1289556920528412, 0.14082278311252594, 0.12816455960273743, 0.11234176903963089, 0.0, 0.0, 0.0, 0.0, 0.0, 0.0, 0.0, 0.0, 0.0, 0.0, 0.0, 0.0, 0.0, 0.0, 0.0, 0.0, 0.0, 0.0, 0.0, 0.0, 0.0, 0.0, 0.0, 0.0, 0.0, 1.0]}
02-Oct-19 20:22:46 - INFO : Sent ekg signal message: {"timestamp": "10/02/2019 20:22:46", "signal_values": [1.0, 0.2915632724761963, 0.2431761771440506, 0.5155087113380432, 0.4385856091976166, 0.37779155373573303, 0.2636476457118988, 0.24379652738571167, 0.2456575632095337, 0.26985111832618713, 0.2599255442619324, 0.2586848735809326, 0.27915632724761963, 0.2636476457118988, 0.29032257199287415, 0.28722083568573, 0.28598013520240784, 0.26985111832618713, 0.2586848735809326, 0.2642679810523987, 0.23263026773929596, 0.2450372278690338, 0.22332505881786346, 0.18672455847263336, 0.19292804598808289, 0.14640198647975922, 0.1377171277999878, 0.07816377282142639, 0.060173697769641876, 0.027915632352232933, 0.027915632352232933, 0.0, 0.060173697769641876, 0.07754342257976532, 0.10173697024583817, 0.13213399052619934, 0.16687345504760742, 0.20285360515117645, 0.2227047085762024, 0.2543424367904663, 0.27915632724761963, 0.2884615361690521, 0.2754342555999756, 0.3008684813976288, 0.3120347261428833, 0.3213399648666382, 0.3169975280761719, 0.31575682759284973, 0.33560794591903687, 0.34925559163093567, 0.38213399052619934, 0.4292804002761841, 0.4770471453666687, 0.4906947910785675, 0.542803943157196, 0.5080645084381104, 0.46712160110473633, 0.4423076808452606, 0.45719602704048157, 0.4199751913547516, 0.34491315484046936, 0.30831265449523926, 0.31761786341667175, 0.30148884654045105, 0.2940446734428406, 0.2959057092666626, 0.31265509128570557, 0.2679900825023651, 0.2983871102333069, 0.28535979986190796, 0.27605459094047546, 0.270471453666687, 0.2729528546333313, 0.2816377282142639, 0.21588090062141418, 0.05645161122083664, 0.11538461595773697, 0.27605459094047546, 0.7239454388618469, 0.9633995294570923, 0.2822580635547638, 0.24255582690238953, 0.5291563272476196, 0.4522332549095154, 0.38647642731666565, 0.2816377282142639, 0.3120347261428833, 0.2475186139345169, 0.23325061798095703, 0.26923078298568726, 0.2884615361690521, 0.29218363761901855, 0.25124070048332214, 0.2952853739261627, 0.2847394645214081, 0.3021091818809509, 0.0, 0.0, 0.0, 0.0, 0.0, 0.0, 0.0, 0.0, 0.0, 0.0, 0.0, 0.0, 0.0, 0.0, 0.0, 0.0, 0.0, 0.0, 0.0, 0.0, 0.0, 0.0, 0.0, 0.0, 0.0, 0.0, 0.0, 0.0, 0.0, 0.0, 0.0, 0.0, 0.0, 0.0, 0.0, 0.0, 0.0, 0.0, 0.0, 0.0, 0.0, 0.0, 0.0, 0.0, 0.0, 0.0, 0.0, 0.0, 0.0, 0.0, 0.0, 0.0, 0.0, 0.0, 0.0, 0.0, 0.0, 0.0, 0.0, 0.0, 0.0, 0.0, 0.0, 0.0, 0.0, 0.0, 0.0, 0.0, 0.0, 0.0, 0.0, 0.0, 0.0, 0.0, 0.0, 0.0, 0.0, 0.0, 0.0, 0.0, 0.0, 0.0, 0.0, 0.0, 0.0, 0.0, 0.0, 0.0, 0.0, 0.0, 0.0, 1.0]}
02-Oct-19 20:22:47 - INFO : Sent ekg signal message: {"timestamp": "10/02/2019 20:22:47", "signal_values": [0.932511568069458, 0.9528505206108093, 0.7802773714065552, 0.652696430683136, 0.6425269842147827, 0.6154083013534546, 0.03513097018003464, 0.01941448450088501, 0.015716487541794777, 0.0, 0.014791987836360931, 0.02526964619755745, 0.028967643156647682, 0.021879814565181732, 0.026194144040346146, 0.0354391373693943, 0.037904467433691025, 0.04160246625542641, 0.034514639526605606, 0.06040061637759209, 0.07858243584632874, 0.0656394436955452, 0.5688751935958862, 0.6440678238868713, 0.6246533393859863, 0.6456086039543152, 0.6459168195724487, 0.6539291143417358, 0.6748844385147095, 0.682280421257019, 0.6887519359588623, 0.6782742738723755, 0.6727272868156433, 0.6739599108695984, 0.6539291143417358, 0.6375963091850281, 0.019722649827599525, 0.06194144859910011, 0.03420647233724594, 0.03882896900177002, 0.03050847537815571, 0.04006163403391838, 0.04006163403391838, 0.03420647233724594, 0.039753466844558716, 0.05115562304854393, 0.051463790237903595, 0.039137132465839386, 0.03697996959090233, 0.049614790827035904, 0.04714946076273918, 0.04283513128757477, 0.04468413069844246, 0.044375963509082794, 0.04283513128757477, 0.04006163403391838, 0.034514639526605606, 0.032049305737018585, 0.044992294162511826, 0.04129429906606674, 0.0434514619410038, 0.037904467433691025, 0.040369801223278046, 0.045608628541231155, 0.03482280299067497, 0.026810478419065475, 0.04160246625542641, 0.050847455859184265, 0.046224962919950485, 0.032049305737018585, 0.03821263462305069, 0.03697996959090233, 0.03482280299067497, 0.04221879690885544, 0.027426810935139656, 0.04468413069844246, 0.03359013795852661, 0.6009244918823242, 0.6348227858543396, 0.6335901618003845, 0.6551617980003357, 0.6659476161003113, 0.6431432962417603, 0.682280421257019, 0.6604006290435791, 0.6388289928436279, 0.2650231122970581, 0.036671802401542664, 0.02526964619755745, 0.028659475967288017, 0.022804314270615578, 0.027426810935139656, 0.019106317311525345, 0.014175654388964176, 0.015100154094398022, 0.01171032339334488, 0.022187981754541397, 0.47118642926216125, 0.7611710429191589, 0.8662557601928711, 1.0, 0.8166409730911255, 0.6918336153030396, 0.6736517548561096, 0.630816638469696, 0.03359013795852661, 0.036363635212183, 0.02711864374577999, 0.02465331368148327, 0.022187981754541397, 0.03513097018003464, 0.03235747292637825, 0.03728813678026199, 0.03605547174811363, 0.032665640115737915, 0.03420647233724594, 0.04899846017360687, 0.04684129357337952, 0.04591679573059082, 0.04992295801639557, 0.0, 0.0, 0.0, 0.0, 0.0, 0.0, 0.0, 0.0, 0.0, 0.0, 0.0, 0.0, 0.0, 0.0, 0.0, 0.0, 0.0, 0.0, 0.0, 0.0, 0.0, 0.0, 0.0, 0.0, 0.0, 0.0, 0.0, 0.0, 0.0, 0.0, 0.0, 0.0, 0.0, 0.0, 0.0, 0.0, 0.0, 0.0, 0.0, 0.0, 0.0, 0.0, 0.0, 0.0, 0.0, 0.0, 0.0, 0.0, 0.0, 0.0, 0.0, 0.0, 0.0, 0.0, 0.0, 0.0, 0.0, 0.0, 0.0, 0.0, 0.0, 0.0, 0.0, 0.0, 0.0, 0.0, 0.0, 1.0]}
02-Oct-19 20:22:48 - INFO : Sent ekg signal message: {"timestamp": "10/02/2019 20:22:48", "signal_values": [1.0, 0.9954867959022522, 0.8381689190864563, 0.727917492389679, 0.5944551825523376, 0.5454545617103577, 0.4900064468383789, 0.4880722165107727, 0.4938749074935913, 0.4784010350704193, 0.4990328848361969, 0.5138620138168335, 0.5286911725997925, 0.5248227119445801, 0.4867827296257019, 0.5286911725997925, 0.5422308444976807, 0.5357833504676819, 0.5544809699058533, 0.5203094482421875, 0.5544809699058533, 0.5944551825523376, 0.5428755879402161, 0.6105738282203674, 0.6047711372375488, 0.6028369069099426, 0.6009026169776917, 0.5789812803268433, 0.5867182612419128, 0.588652491569519, 0.5448098182678223, 0.5718891024589539, 0.5080593228340149, 0.4796905219554901, 0.43133461475372314, 0.40425533056259155, 0.40683430433273315, 0.3217279314994812, 0.35654416680336, 0.3571889102458954, 0.3301095962524414, 0.37395229935646057, 0.40425533056259155, 0.40103158354759216, 0.39071565866470337, 0.38555771112442017, 0.38620245456695557, 0.359767884016037, 0.37266281247138977, 0.3372018039226532, 0.350741446018219, 0.347517728805542, 0.3520309329032898, 0.3159252107143402, 0.3268858790397644, 0.3430045247077942, 0.3449387550354004, 0.3333333432674408, 0.3159252107143402, 0.33204385638237, 0.3107672333717346, 0.3197936713695526, 0.3133462369441986, 0.2811089754104614, 0.299161821603775, 0.2998065650463104, 0.3127014935016632, 0.3043197989463806, 0.320438414812088, 0.344294011592865, 0.37459704279899597, 0.40747904777526855, 0.350741446018219, 0.42746615409851074, 0.42682141065597534, 0.4584139287471771, 0.44680851697921753, 0.368794322013855, 0.39071565866470337, 0.344294011592865, 0.25016120076179504, 0.24371373653411865, 0.23662152886390686, 0.22888459265232086, 0.22114764153957367, 0.1689232736825943, 0.20825274288654327, 0.1856866478919983, 0.22308188676834106, 0.19793681800365448, 0.13023856282234192, 0.03288201242685318, 0.0, 0.23662152886390686, 0.7188910245895386, 0.8684719800949097, 0.8968407511711121, 0.6576402187347412, 0.5660864114761353, 0.5106382966041565, 0.43068987131118774, 0.3281753659248352, 0.3520309329032898, 0.362346887588501, 0.33204385638237, 0.3436492681503296, 0.3520309329032898, 0.3307543396949768, 0.3513861894607544, 0.308188259601593, 0.33204385638237, 0.3494519591331482, 0.0, 0.0, 0.0, 0.0, 0.0, 0.0, 0.0, 0.0, 0.0, 0.0, 0.0, 0.0, 0.0, 0.0, 0.0, 0.0, 0.0, 0.0, 0.0, 0.0, 0.0, 0.0, 0.0, 0.0, 0.0, 0.0, 0.0, 0.0, 0.0, 0.0, 0.0, 0.0, 0.0, 0.0, 0.0, 0.0, 0.0, 0.0, 0.0, 0.0, 0.0, 0.0, 0.0, 0.0, 0.0, 0.0, 0.0, 0.0, 0.0, 0.0, 0.0, 0.0, 0.0, 0.0, 0.0, 0.0, 0.0, 0.0, 0.0, 0.0, 0.0, 0.0, 0.0, 0.0, 0.0, 0.0, 0.0, 0.0, 0.0, 0.0, 0.0, 0.0, 0.0, 0.0, 0.0, 1.0]}
02-Oct-19 20:22:49 - INFO : Sent ekg signal message: {"timestamp": "10/02/2019 20:22:49", "signal_values": [0.9996503591537476, 0.8814685344696045, 0.28111886978149414, 0.15524475276470184, 0.10664335638284683, 0.06398601084947586, 0.031118880957365036, 0.0279720276594162, 0.0073426575399935246, 0.026923077180981636, 0.02237762324512005, 0.008741258643567562, 0.021678321063518524, 0.013286713510751724, 0.02237762324512005, 0.023076923564076424, 0.02062937058508396, 0.036713287234306335, 0.029370630159974098, 0.043706294149160385, 0.036713287234306335, 0.03601398691534996, 0.053496502339839935, 0.03776223957538605, 0.05979020893573761, 0.057692307978868484, 0.06328671425580978, 0.06258741021156311, 0.060489509254693985, 0.06853146851062775, 0.06363636255264282, 0.06678321957588196, 0.08006992936134338, 0.08461538702249527, 0.08846154063940048, 0.09930069744586945, 0.08356643468141556, 0.09440559148788452, 0.07517482340335846, 0.0811188817024231, 0.07202797383069992, 0.06083916127681732, 0.067132867872715, 0.052097901701927185, 0.061888113617897034, 0.06328671425580978, 0.0643356665968895, 0.08531468361616135, 0.06328671425580978, 0.08146852999925613, 0.07587412744760513, 0.06608391553163528, 0.08286713063716888, 0.061888113617897034, 0.06678321957588196, 0.061888113617897034, 0.050699301064014435, 0.06818182021379471, 0.05104894936084747, 0.06118880957365036, 0.053496502339839935, 0.04615384712815285, 0.06083916127681732, 0.04160839319229126, 0.04965034872293472, 0.05139860138297081, 0.04440559446811676, 0.0475524477660656, 0.03601398691534996, 0.0531468540430069, 0.052097901701927185, 0.037062935531139374, 0.05734265595674515, 0.036363635212183, 0.050699301064014435, 0.06398601084947586, 0.067132867872715, 0.08321678638458252, 0.0643356665968895, 0.08076923340559006, 0.0979020968079567, 0.07937063276767731, 0.08811188489198685, 0.06853146851062775, 0.06083916127681732, 0.06888111680746078, 0.05454545468091965, 0.05139860138297081, 0.02762237749993801, 0.035314686596393585, 0.037062935531139374, 0.022727273404598236, 0.036713287234306335, 0.02202797122299671, 0.040909089148044586, 0.03776223957538605, 0.00699300691485405, 0.04335664212703705, 0.2097902148962021, 0.5066433548927307, 0.8209789991378784, 1.0, 0.881118893623352, 0.274125874042511, 0.13881118595600128, 0.09545454382896423, 0.04720279574394226, 0.035314686596393585, 0.013286713510751724, 0.02482517436146736, 0.018531467765569687, 0.0, 0.025874126702547073, 0.00909090880304575, 0.02202797122299671, 0.008041958324611187, 0.0195804201066494, 0.028671327978372574, 0.021328670904040337, 0.0237762238830328, 0.0, 0.0, 0.0, 0.0, 0.0, 0.0, 0.0, 0.0, 0.0, 0.0, 0.0, 0.0, 0.0, 0.0, 0.0, 0.0, 0.0, 0.0, 0.0, 0.0, 0.0, 0.0, 0.0, 0.0, 0.0, 0.0, 0.0, 0.0, 0.0, 0.0, 0.0, 0.0, 0.0, 0.0, 0.0, 0.0, 0.0, 0.0, 0.0, 0.0, 0.0, 0.0, 0.0, 0.0, 0.0, 0.0, 0.0, 0.0, 0.0, 0.0, 0.0, 0.0, 0.0, 0.0, 0.0, 0.0, 0.0, 0.0, 0.0, 0.0, 0.0, 0.0, 0.0, 0.0, 0.0, 0.0, 0.0, 1.0]}
02-Oct-19 20:22:50 - INFO : Sent ekg signal message: {"timestamp": "10/02/2019 20:22:50", "signal_values": [1.0, 0.9983766078948975, 0.5783278942108154, 0.24472402036190033, 0.0, 0.01461038924753666, 0.09334415942430496, 0.16680194437503815, 0.19115260243415833, 0.19926947355270386, 0.21469156444072723, 0.2142857164144516, 0.22524350881576538, 0.2232142835855484, 0.23173701763153076, 0.2398538887500763, 0.22930194437503815, 0.23417207598686218, 0.23701298236846924, 0.2378246784210205, 0.2467532455921173, 0.2443181872367859, 0.25487011671066284, 0.26826298236846924, 0.2690746784210205, 0.2780032455921173, 0.2954545319080353, 0.3080357015132904, 0.33400973677635193, 0.35430195927619934, 0.3717532455921173, 0.39326298236846924, 0.42816558480262756, 0.45373377203941345, 0.4874188303947449, 0.5117694735527039, 0.5150162577629089, 0.5255681872367859, 0.5190746784210205, 0.4963473975658417, 0.4655032455921173, 0.41558441519737244, 0.3717532455921173, 0.32995128631591797, 0.2958603799343109, 0.2698863744735718, 0.24634739756584167, 0.2333603948354721, 0.2244318127632141, 0.21469156444072723, 0.22118505835533142, 0.20008116960525513, 0.19886364042758942, 0.2065746784210205, 0.19926947355270386, 0.21022726595401764, 0.20900973677635193, 0.22280843555927277, 0.22524350881576538, 0.22362013161182404, 0.23295454680919647, 0.23741883039474487, 0.23376622796058655, 0.23863635957241058, 0.23863635957241058, 0.24350649118423462, 0.24025973677635193, 0.2353896051645279, 0.23823052644729614, 0.23701298236846924, 0.23904220759868622, 0.2378246784210205, 0.23133116960525513, 0.22808441519737244, 0.23498377203941345, 0.24188311398029327, 0.2276785671710968, 0.23051947355270386, 0.23254869878292084, 0.22362013161182404, 0.2321428507566452, 0.22483766078948975, 0.2264610379934311, 0.22240260243415833, 0.21834415197372437, 0.21875, 0.22077922523021698, 0.22564935684204102, 0.2219967544078827, 0.21266233921051025, 0.22564935684204102, 0.22037337720394135, 0.2232142835855484, 0.21875, 0.21387986838817596, 0.2288961112499237, 0.22280843555927277, 0.22483766078948975, 0.21590909361839294, 0.2199675291776657, 0.22159090638160706, 0.21347402036190033, 0.2155032455921173, 0.22240260243415833, 0.2130681872367859, 0.22118505835533142, 0.21347402036190033, 0.2199675291776657, 0.22564935684204102, 0.21875, 0.2333603948354721, 0.21672077476978302, 0.2199675291776657, 0.22524350881576538, 0.22240260243415833, 0.22240260243415833, 0.22402597963809967, 0.23133116960525513, 0.22362013161182404, 0.22727273404598236, 0.23295454680919647, 0.23051947355270386, 0.22930194437503815, 0.22564935684204102, 0.22605518996715546, 0.23133116960525513, 0.2219967544078827, 0.22849026322364807, 0.22037337720394135, 0.2155032455921173, 0.22402597963809967, 0.21469156444072723, 0.22930194437503815, 0.24756494164466858, 0.26176947355270386, 0.27962663769721985, 0.2792207896709442, 0.3177759647369385, 0.3246753215789795, 0.31331169605255127, 0.28936687111854553, 0.2532467544078827, 0.2564935088157654, 0.24188311398029327, 0.2288961112499237, 0.21915584802627563, 0.21956168115139008, 0.2199675291776657, 0.22524350881576538, 0.2232142835855484, 0.21956168115139008, 0.4115259647369385, 0.6497564911842346, 0.9935064911842346, 0.9983766078948975, 0.6258116960525513, 0.2824675440788269, 0.04220779240131378, 0.04139610379934311, 0.11525973677635193, 0.19683441519737244, 0.21387986838817596, 0.21956168115139008, 0.23254869878292084, 0.2467532455921173, 0.2552759647369385, 0.25284090638160706, 0.2536526024341583, 0.2524350583553314, 0.25040584802627563, 0.2711038887500763, 0.2621753215789795, 0.27150973677635193, 0.27394479513168335, 0.26501622796058655, 0.27516233921051025, 0.2702922224998474, 0.30275973677635193, 0.29870128631591797, 0.3088473975658417, 0.3226461112499237, 0.3380681872367859, 0.36120128631591797, 0.0, 0.0, 0.0, 0.0, 1.0]}
02-Oct-19 20:22:51 - INFO : Sent ekg signal message: {"timestamp": "10/02/2019 20:22:51", "signal_values": [0.9548717737197876, 0.6969230771064758, 0.31282052397727966, 0.13794872164726257, 0.17282050848007202, 0.14666666090488434, 0.04512820392847061, 0.026153845712542534, 0.0, 0.04923076927661896, 0.01794871874153614, 0.03333333507180214, 0.03333333507180214, 0.0420512817800045, 0.04615384712815285, 0.0405128188431263, 0.0517948716878891, 0.06256410479545593, 0.04769230633974075, 0.05384615436196327, 0.05230769142508507, 0.05999999865889549, 0.02102564089000225, 0.01794871874153614, 0.034871794283390045, 0.02717948704957962, 0.0405128188431263, 0.049743589013814926, 0.06820512562990189, 0.06871794909238815, 0.07846153527498245, 0.09333333373069763, 0.08871795237064362, 0.11384615302085876, 0.10461538285017014, 0.11282051354646683, 0.12102564424276352, 0.10923077166080475, 0.14615385234355927, 0.14051282405853271, 0.14461538195610046, 0.11846154183149338, 0.14358974993228912, 0.14769230782985687, 0.14461538195610046, 0.13692307472229004, 0.1651282012462616, 0.18820512294769287, 0.20307692885398865, 0.2041025608778, 0.22205127775669098, 0.23538461327552795, 0.21641024947166443, 0.21076923608779907, 0.1958974301815033, 0.17743590474128723, 0.18051281571388245, 0.16102564334869385, 0.14461538195610046, 0.08871795237064362, 0.07076922804117203, 0.05487179383635521, 0.10615384578704834, 0.08153846114873886, 0.0938461571931839, 0.02410256490111351, 0.00615384615957737, 0.07487179338932037, 0.029230769723653793, 0.2656410336494446, 0.7861538529396057, 1.0, 0.7138461470603943, 0.372307687997818, 0.19846153259277344, 0.2020512819290161, 0.17230768501758575, 0.0825641006231308, 0.07589743286371231, 0.06358974426984787, 0.06923077255487442, 0.08307692408561707, 0.06923077255487442, 0.07999999821186066, 0.08512820303440094, 0.0, 0.0, 0.0, 0.0, 0.0, 0.0, 0.0, 0.0, 0.0, 0.0, 0.0, 0.0, 0.0, 0.0, 0.0, 0.0, 0.0, 0.0, 0.0, 0.0, 0.0, 0.0, 0.0, 0.0, 0.0, 0.0, 0.0, 0.0, 0.0, 0.0, 0.0, 0.0, 0.0, 0.0, 0.0, 0.0, 0.0, 0.0, 0.0, 0.0, 0.0, 0.0, 0.0, 0.0, 0.0, 0.0, 0.0, 0.0, 0.0, 0.0, 0.0, 0.0, 0.0, 0.0, 0.0, 0.0, 0.0, 0.0, 0.0, 0.0, 0.0, 0.0, 0.0, 0.0, 0.0, 0.0, 0.0, 0.0, 0.0, 0.0, 0.0, 0.0, 0.0, 0.0, 0.0, 0.0, 0.0, 0.0, 0.0, 0.0, 0.0, 0.0, 0.0, 0.0, 0.0, 0.0, 0.0, 0.0, 0.0, 0.0, 0.0, 0.0, 0.0, 0.0, 0.0, 0.0, 0.0, 0.0, 0.0, 0.0, 0.0, 0.0, 1.0]}
02-Oct-19 20:22:52 - INFO : Sent ekg signal message: {"timestamp": "10/02/2019 20:22:52", "signal_values": [1.0, 0.92242830991745, 0.8338954448699951, 0.18381112813949585, 0.0, 0.03541315346956253, 0.13322091102600098, 0.3903878629207611, 0.633220911026001, 0.6037099361419678, 0.5118044018745422, 0.3043844997882843, 0.22259695827960968, 0.22259695827960968, 0.3448566496372223, 0.47470489144325256, 0.5446880459785461, 0.5860033631324768, 0.5767285227775574, 0.6011804342269897, 0.6062394380569458, 0.6037099361419678, 0.6146711707115173, 0.6003372669219971, 0.6112985014915466, 0.6146711707115173, 0.610455334186554, 0.6391230821609497, 0.6399662494659424, 0.618043839931488, 0.6391230821609497, 0.6441821455955505, 0.6787521243095398, 0.6863406300544739, 0.6838111281394958, 0.7023608684539795, 0.7116357684135437, 0.7327150106430054, 0.7234401106834412, 0.748735249042511, 0.7554805874824524, 0.7588533163070679, 0.7647554874420166, 0.7386171817779541, 0.7748734951019287, 0.7748734951019287, 0.766441822052002, 0.7588533163070679, 0.7428330779075623, 0.7521079182624817, 0.7478920817375183, 0.7630691528320312, 0.7546374201774597, 0.6981450319290161, 0.73102867603302, 0.7318718433380127, 0.7175379395484924, 0.7453625798225403, 0.7301855087280273, 0.7166947722434998, 0.7251265048980713, 0.6973018646240234, 0.7217537760734558, 0.6998313665390015, 0.7124789357185364, 0.7040472030639648, 0.6913996338844299, 0.713322103023529, 0.7124789357185364, 0.6939291954040527, 0.6998313665390015, 0.7048903703689575, 0.710792601108551, 0.6913996338844299, 0.6930860280990601, 0.7040472030639648, 0.6829679608345032, 0.7099494338035583, 0.6846542954444885, 0.6973018646240234, 0.7023608684539795, 0.6854974627494812, 0.7217537760734558, 0.655986487865448, 0.728499174118042, 0.6677908897399902, 0.6652613878250122, 0.6905564665794373, 0.6610455513000488, 0.7082630395889282, 0.7065767049789429, 0.7613828182220459, 0.8094435334205627, 0.7782462239265442, 0.8330522775650024, 0.8811129927635193, 0.8608769178390503, 0.8777403235435486, 0.8195615410804749, 0.8768971562385559, 0.8726812601089478, 0.8752108216285706, 0.7790893912315369, 0.6981450319290161, 0.6298482418060303, 0.6231028437614441, 0.6172006726264954, 0.6222596764564514, 0.618043839931488, 0.6340640783309937, 0.6458684802055359, 0.6096121668815613, 0.0, 0.0, 0.0, 0.0, 0.0, 0.0, 0.0, 0.0, 0.0, 0.0, 0.0, 0.0, 0.0, 0.0, 0.0, 0.0, 0.0, 0.0, 0.0, 0.0, 0.0, 0.0, 0.0, 0.0, 0.0, 0.0, 0.0, 0.0, 0.0, 0.0, 0.0, 0.0, 0.0, 0.0, 0.0, 0.0, 0.0, 0.0, 0.0, 0.0, 0.0, 0.0, 0.0, 0.0, 0.0, 0.0, 0.0, 0.0, 0.0, 0.0, 0.0, 0.0, 0.0, 0.0, 0.0, 0.0, 0.0, 0.0, 0.0, 0.0, 0.0, 0.0, 0.0, 0.0, 0.0, 0.0, 0.0, 0.0, 0.0, 0.0, 0.0, 0.0, 0.0, 0.0, 0.0, 1.0]}
02-Oct-19 20:22:53 - INFO : Sent ekg signal message: {"timestamp": "10/02/2019 20:22:53", "signal_values": [1.0, 0.4736842215061188, 0.06414473801851273, 0.0794956162571907, 0.12828947603702545, 0.1458333283662796, 0.13980263471603394, 0.1430921107530594, 0.14089912176132202, 0.1315789520740509, 0.16337719559669495, 0.14473684132099152, 0.18201754987239838, 0.15953947603702545, 0.18146929144859314, 0.18201754987239838, 0.15131579339504242, 0.2253289520740509, 0.16557016968727112, 0.19846491515636444, 0.18311403691768646, 0.16447368264198303, 0.19298245012760162, 0.20230263471603394, 0.19846491515636444, 0.2368421107530594, 0.23135964572429657, 0.29111841320991516, 0.29879385232925415, 0.297149121761322, 0.3020833432674408, 0.3256579041481018, 0.32346490025520325, 0.304824560880661, 0.3004385828971863, 0.29111841320991516, 0.26864033937454224, 0.26260966062545776, 0.2225877195596695, 0.21436403691768646, 0.19462719559669495, 0.15625, 0.1913377195596695, 0.17105263471603394, 0.15789473056793213, 0.1705043911933899, 0.12390350550413132, 0.15953947603702545, 0.15186403691768646, 0.16118420660495758, 0.16885964572429657, 0.14089912176132202, 0.1589912325143814, 0.15405701100826263, 0.14802631735801697, 0.179824560880661, 0.11239035427570343, 0.15405701100826263, 0.125, 0.13212719559669495, 0.14364035427570343, 0.10690789669752121, 0.14528508484363556, 0.11787280440330505, 0.09923245757818222, 0.13103070855140686, 0.14364035427570343, 0.19243420660495758, 0.15076754987239838, 0.20942983031272888, 0.179824560880661, 0.18804824352264404, 0.18201754987239838, 0.15953947603702545, 0.13486842811107635, 0.13432016968727112, 0.04440789297223091, 0.08442982286214828, 0.07346491515636444, 0.05975877121090889, 0.07894736528396606, 0.06304824352264404, 0.1041666641831398, 0.05921052768826485, 0.03947368264198303, 0.014254385605454445, 0.09978070110082626, 0.4879385828971863, 0.8711622953414917, 0.688048243522644, 0.06469298154115677, 0.0, 0.08607456088066101, 0.13377192616462708, 0.10307017713785172, 0.13651315867900848, 0.09429824352264404, 0.11951754242181778, 0.09539473801851273, 0.10526315867900848, 0.13048245012760162, 0.09210526198148727, 0.09649122506380081, 0.09320175647735596, 0.0, 0.0, 0.0, 0.0, 0.0, 0.0, 0.0, 0.0, 0.0, 0.0, 0.0, 0.0, 0.0, 0.0, 0.0, 0.0, 0.0, 0.0, 0.0, 0.0, 0.0, 0.0, 0.0, 0.0, 0.0, 0.0, 0.0, 0.0, 0.0, 0.0, 0.0, 0.0, 0.0, 0.0, 0.0, 0.0, 0.0, 0.0, 0.0, 0.0, 0.0, 0.0, 0.0, 0.0, 0.0, 0.0, 0.0, 0.0, 0.0, 0.0, 0.0, 0.0, 0.0, 0.0, 0.0, 0.0, 0.0, 0.0, 0.0, 0.0, 0.0, 0.0, 0.0, 0.0, 0.0, 0.0, 0.0, 0.0, 0.0, 0.0, 0.0, 0.0, 0.0, 0.0, 0.0, 0.0, 0.0, 0.0, 0.0, 0.0, 0.0, 0.0, 0.0, 1.0]}
02-Oct-19 20:22:54 - INFO : Sent ekg signal message: {"timestamp": "10/02/2019 20:22:54", "signal_values": [0.9876543283462524, 0.8574272990226746, 0.5778574347496033, 0.4388689696788788, 0.10314615815877914, 0.05017921328544617, 0.0744723230600357, 0.1537236124277115, 0.30027878284454346, 0.44962167739868164, 0.5264834761619568, 0.5543608069419861, 0.5579450130462646, 0.5738749504089355, 0.5782556533813477, 0.581839919090271, 0.5822381377220154, 0.5925925970077515, 0.5794504284858704, 0.5826364159584045, 0.5921943187713623, 0.5969732999801636, 0.6105137467384338, 0.5953803062438965, 0.5874153971672058, 0.5989645719528198, 0.59617680311203, 0.6005575656890869, 0.59617680311203, 0.5973715782165527, 0.5953803062438965, 0.5973715782165527, 0.5925925970077515, 0.5977697968482971, 0.5945838093757629, 0.5957785844802856, 0.6017522811889648, 0.6033452749252319, 0.5870171189308167, 0.5854241251945496, 0.5898048877716064, 0.5898048877716064, 0.5862206220626831, 0.5858224034309387, 0.5862206220626831, 0.5850259065628052, 0.5810434222221375, 0.5834329128265381, 0.5842294096946716, 0.573078453540802, 0.5734767317771912, 0.5738749504089355, 0.5774591565132141, 0.5690959692001343, 0.5738749504089355, 0.5830346345901489, 0.5782556533813477, 0.5822381377220154, 0.5814416408538818, 0.5850259065628052, 0.5862206220626831, 0.5866189002990723, 0.5894066095352173, 0.5810434222221375, 0.5830346345901489, 0.5766626596450806, 0.5826364159584045, 0.5842294096946716, 0.5810434222221375, 0.5878136157989502, 0.5858224034309387, 0.5786539316177368, 0.5778574347496033, 0.5762644410133362, 0.5826364159584045, 0.5734767317771912, 0.5750696659088135, 0.5706889629364014, 0.5659099817276001, 0.573078453540802, 0.5671047568321228, 0.5746714472770691, 0.5770609378814697, 0.5679012537002563, 0.5794504284858704, 0.575866162776947, 0.5770609378814697, 0.5774591565132141, 0.5690959692001343, 0.5726802349090576, 0.5774591565132141, 0.5762644410133362, 0.5718837380409241, 0.5675029754638672, 0.5762644410133362, 0.575866162776947, 0.5754679441452026, 0.5762644410133362, 0.5746714472770691, 0.5782556533813477, 0.5770609378814697, 0.581839919090271, 0.5810434222221375, 0.5686977505683899, 0.5750696659088135, 0.5722819566726685, 0.5746714472770691, 0.575866162776947, 0.5750696659088135, 0.5738749504089355, 0.5738749504089355, 0.5750696659088135, 0.5913978219032288, 0.5850259065628052, 0.5949820876121521, 0.614894449710846, 0.6248506307601929, 0.6487455368041992, 0.6423735618591309, 0.5997610688209534, 0.6260454058647156, 0.6069294810295105, 0.5989645719528198, 0.5945838093757629, 0.5953803062438965, 0.5909996032714844, 0.5710872411727905, 0.5571485757827759, 0.5563520789146423, 0.5603345036506653, 0.552767813205719, 0.5543608069419861, 0.5523695945739746, 0.552767813205719, 0.5531660914421082, 0.5535643100738525, 0.5503783226013184, 0.561529278755188, 0.5587415099143982, 0.5698924660682678, 0.5886101126670837, 0.6690561771392822, 0.6889685392379761, 0.7897251844406128, 1.0, 0.8677817583084106, 0.573078453540802, 0.40302667021751404, 0.1067303866147995, 0.0, 0.038231778889894485, 0.10911986976861954, 0.2528873085975647, 0.40700915455818176, 0.5137395262718201, 0.540023922920227, 0.5567502975463867, 0.5655117630958557, 0.5667064785957336, 0.5782556533813477, 0.5734767317771912, 0.5778574347496033, 0.5762644410133362, 0.5750696659088135, 0.5770609378814697, 0.5814416408538818, 0.5786539316177368, 0.5850259065628052, 0.581839919090271, 0.5838311314582825, 0.5802469253540039, 0.0, 0.0, 0.0, 0.0, 0.0, 0.0, 0.0, 0.0, 0.0, 0.0, 0.0, 0.0, 0.0, 0.0, 0.0, 0.0, 1.0]}
02-Oct-19 20:22:55 - INFO : Sent ekg signal message: {"timestamp": "10/02/2019 20:22:55", "signal_values": [1.0, 0.7388632893562317, 0.48003071546554565, 0.27496159076690674, 0.19431643187999725, 0.35407066345214844, 0.3740399479866028, 0.48156681656837463, 0.4278033673763275, 0.4370199739933014, 0.4508448541164398, 0.41090628504753113, 0.46313363313674927, 0.43855607509613037, 0.42396312952041626, 0.4285714328289032, 0.4116743505001068, 0.503072202205658, 0.4377880096435547, 0.39324116706848145, 0.4139784872531891, 0.4193548262119293, 0.48156681656837463, 0.4777265787124634, 0.4777265787124634, 0.5637480616569519, 0.5053763389587402, 0.5522273182868958, 0.5860214829444885, 0.6144393086433411, 0.6635944843292236, 0.5668202638626099, 0.6797235012054443, 0.6351766586303711, 0.5913978219032288, 0.617511510848999, 0.5683563947677612, 0.6121351718902588, 0.5299538969993591, 0.4823348820209503, 0.4769585132598877, 0.44854071736335754, 0.4915514588356018, 0.4301075339317322, 0.40937021374702454, 0.43317973613739014, 0.3632872402667999, 0.4224270284175873, 0.41090628504753113, 0.3725038468837738, 0.44777265191078186, 0.36789554357528687, 0.4308755695819855, 0.35176652669906616, 0.3494623601436615, 0.36943164467811584, 0.2718893885612488, 0.33102917671203613, 0.2772657573223114, 0.29646697640419006, 0.33717358112335205, 0.3732718825340271, 0.36098310351371765, 0.35253456234931946, 0.35944700241088867, 0.4208909273147583, 0.3886328637599945, 0.4431643486022949, 0.37864822149276733, 0.39400920271873474, 0.37711212038993835, 0.33102917671203613, 0.3725038468837738, 0.2841781973838806, 0.3164362609386444, 0.3325652778148651, 0.29109063744544983, 0.3341013789176941, 0.2534562349319458, 0.29723501205444336, 0.27419355511665344, 0.25038403272628784, 0.3271889388561249, 0.22657449543476105, 0.21812595427036285, 0.23963133990764618, 0.14823348820209503, 0.16436251997947693, 0.26497694849967957, 0.6482334733009338, 0.918586790561676, 0.6006144285202026, 0.38479262590408325, 0.151305690407753, 0.0, 0.014592934399843216, 0.02073732763528824, 0.1259600669145584, 0.11213517934083939, 0.1743471622467041, 0.16205836832523346, 0.18586789071559906, 0.22657449543476105, 0.16513057053089142, 0.2211981564760208, 0.28110599517822266, 0.2373271882534027, 0.3663594424724579, 0.28187403082847595, 0.0, 0.0, 0.0, 0.0, 0.0, 0.0, 0.0, 0.0, 0.0, 0.0, 0.0, 0.0, 0.0, 0.0, 0.0, 0.0, 0.0, 0.0, 0.0, 0.0, 0.0, 0.0, 0.0, 0.0, 0.0, 0.0, 0.0, 0.0, 0.0, 0.0, 0.0, 0.0, 0.0, 0.0, 0.0, 0.0, 0.0, 0.0, 0.0, 0.0, 0.0, 0.0, 0.0, 0.0, 0.0, 0.0, 0.0, 0.0, 0.0, 0.0, 0.0, 0.0, 0.0, 0.0, 0.0, 0.0, 0.0, 0.0, 0.0, 0.0, 0.0, 0.0, 0.0, 0.0, 0.0, 0.0, 0.0, 0.0, 0.0, 0.0, 0.0, 0.0, 0.0, 0.0, 0.0, 0.0, 0.0, 0.0, 1.0]}
02-Oct-19 20:22:56 - INFO : Sent ekg signal message: {"timestamp": "10/02/2019 20:22:56", "signal_values": [1.0, 0.761965274810791, 0.3498517572879791, 0.22659890353679657, 0.08725116401910782, 0.09614570438861847, 0.13426513969898224, 0.1385006308555603, 0.1368064433336258, 0.1418890357017517, 0.14739517867565155, 0.1338415890932083, 0.14146548509597778, 0.144853875041008, 0.14358322322368622, 0.1545955091714859, 0.14570097625255585, 0.14697162806987762, 0.14104193449020386, 0.15078356862068176, 0.15205422043800354, 0.14866581559181213, 0.1575603485107422, 0.15078356862068176, 0.13934773206710815, 0.1499364674091339, 0.1321474015712738, 0.13553579151630402, 0.1304531991481781, 0.1287589967250824, 0.10758153349161148, 0.09233375638723373, 0.0902160108089447, 0.07327403873205185, 0.072426937520504, 0.08555696904659271, 0.0902160108089447, 0.10165183991193771, 0.11562897264957428, 0.12748835980892181, 0.15883100032806396, 0.15247777104377747, 0.15501905977725983, 0.1821262240409851, 0.16476069390773773, 0.17196103930473328, 0.16010165214538574, 0.16941973567008972, 0.18000847101211548, 0.16010165214538574, 0.15586616098880768, 0.1575603485107422, 0.16645489633083344, 0.16052520275115967, 0.15713681280612946, 0.16052520275115967, 0.16814908385276794, 0.1609487533569336, 0.1689961850643158, 0.16052520275115967, 0.16645489633083344, 0.15247777104377747, 0.15417195856571198, 0.15163066983222961, 0.15078356862068176, 0.16518424451351166, 0.14697162806987762, 0.1579838991165161, 0.14781871438026428, 0.14443032443523407, 0.15713681280612946, 0.14866581559181213, 0.1499364674091339, 0.13426513969898224, 0.14570097625255585, 0.14866581559181213, 0.13722999393939972, 0.1304531991481781, 0.15247777104377747, 0.14358322322368622, 0.1499364674091339, 0.13934773206710815, 0.1385006308555603, 0.14612452685832977, 0.1545955091714859, 0.1482422649860382, 0.1418890357017517, 0.14951291680335999, 0.1338415890932083, 0.14443032443523407, 0.1609487533569336, 0.16560779511928558, 0.19737400114536285, 0.21812790632247925, 0.2143159657716751, 0.23125794529914856, 0.23930537700653076, 0.2914019525051117, 0.25370606780052185, 0.24692927300930023, 0.228716641664505, 0.1643371433019638, 0.1338415890932083, 0.1224057599902153, 0.11817026883363724, 0.12452350556850433, 0.10419313609600067, 0.10927572846412659, 0.11012282967567444, 0.04913172498345375, 0.016518425196409225, 0.06056755781173706, 0.4527742564678192, 0.9135959148406982, 0.9233375787734985, 0.4108428657054901, 0.13468869030475616, 0.044049132615327835, 0.0, 0.07962727546691895, 0.08936890959739685, 0.08343922346830368, 0.0, 0.0, 0.0, 0.0, 0.0, 0.0, 0.0, 0.0, 0.0, 0.0, 0.0, 0.0, 0.0, 0.0, 0.0, 0.0, 0.0, 0.0, 0.0, 0.0, 0.0, 0.0, 0.0, 0.0, 0.0, 0.0, 0.0, 0.0, 0.0, 0.0, 0.0, 0.0, 0.0, 0.0, 0.0, 0.0, 0.0, 0.0, 0.0, 0.0, 0.0, 0.0, 0.0, 0.0, 0.0, 0.0, 0.0, 0.0, 0.0, 0.0, 0.0, 0.0, 0.0, 0.0, 0.0, 0.0, 0.0, 0.0, 0.0, 0.0, 0.0, 0.0, 0.0, 0.0, 0.0, 1.0]}
02-Oct-19 20:22:57 - INFO : Sent ekg signal message: {"timestamp": "10/02/2019 20:22:57", "signal_values": [1.0, 0.9220636487007141, 0.6591657400131226, 0.3534577488899231, 0.17453348636627197, 0.17563118040561676, 0.1630076766014099, 0.15203073620796204, 0.12458836287260056, 0.11690449714660645, 0.16630077362060547, 0.14050494134426117, 0.12184412777423859, 0.18605928122997284, 0.1542261242866516, 0.18605928122997284, 0.19209659099578857, 0.1547749787569046, 0.17892426252365112, 0.16136114299297333, 0.20526893436908722, 0.19429199397563934, 0.23051591217517853, 0.23819978535175323, 0.2497255802154541, 0.2755213975906372, 0.28979143500328064, 0.33424806594848633, 0.3534577488899231, 0.3616904616355896, 0.3957189917564392, 0.397365540266037, 0.40175631642341614, 0.36663007736206055, 0.39187705516815186, 0.41822174191474915, 0.3622393012046814, 0.32217344641685486, 0.27222833037376404, 0.23106476664543152, 0.2074643224477768, 0.17727771401405334, 0.14379802346229553, 0.13611416518688202, 0.13446761667728424, 0.1306256800889969, 0.13282108306884766, 0.11361141502857208, 0.15806806087493896, 0.1289791464805603, 0.16245883703231812, 0.15257957577705383, 0.13556531071662903, 0.15971459448337555, 0.0691547766327858, 0.1542261242866516, 0.13227222859859467, 0.1295279860496521, 0.15697036683559418, 0.12349066883325577, 0.1558726727962494, 0.1470911055803299, 0.14434687793254852, 0.15367728471755981, 0.12513720989227295, 0.16245883703231812, 0.14983534812927246, 0.14873765408992767, 0.16739846765995026, 0.1289791464805603, 0.15751920640468597, 0.11031833291053772, 0.11525795608758926, 0.17398463189601898, 0.11800219863653183, 0.12239297479391098, 0.1717892438173294, 0.1646542251110077, 0.1981339156627655, 0.1816684901714325, 0.23874862492084503, 0.21130625903606415, 0.18221734464168549, 0.20472009479999542, 0.16026344895362854, 0.1465422660112381, 0.12184412777423859, 0.08946213126182556, 0.08946213126182556, 0.0779363363981247, 0.0, 0.0861690416932106, 0.07409439980983734, 0.04994511604309082, 0.07628978788852692, 0.08287595957517624, 0.05488474294543266, 0.04720087721943855, 0.08122941851615906, 0.09001097828149796, 0.3874862790107727, 0.898463249206543, 0.9094401597976685, 0.5675082206726074, 0.2656421661376953, 0.1300768405199051, 0.11470910906791687, 0.13282108306884766, 0.12184412777423859, 0.08836443722248077, 0.13172337412834167, 0.10428100824356079, 0.10428100824356079, 0.1284302920103073, 0.11580680310726166, 0.1564215123653412, 0.12239297479391098, 0.12623490393161774, 0.12678375840187073, 0.14270032942295074, 0.189901202917099, 0.0, 0.0, 0.0, 0.0, 0.0, 0.0, 0.0, 0.0, 0.0, 0.0, 0.0, 0.0, 0.0, 0.0, 0.0, 0.0, 0.0, 0.0, 0.0, 0.0, 0.0, 0.0, 0.0, 0.0, 0.0, 0.0, 0.0, 0.0, 0.0, 0.0, 0.0, 0.0, 0.0, 0.0, 0.0, 0.0, 0.0, 0.0, 0.0, 0.0, 0.0, 0.0, 0.0, 0.0, 0.0, 0.0, 0.0, 0.0, 0.0, 0.0, 0.0, 0.0, 0.0, 0.0, 0.0, 0.0, 0.0, 0.0, 0.0, 0.0, 0.0, 0.0, 0.0, 0.0, 0.0, 0.0, 1.0]}
02-Oct-19 20:22:58 - INFO : Sent ekg signal message: {"timestamp": "10/02/2019 20:22:58", "signal_values": [0.9455851912498474, 0.6416837573051453, 0.4989733099937439, 0.42094457149505615, 0.3470225930213928, 0.3388090431690216, 0.34907597303390503, 0.40451744198799133, 0.3798767924308777, 0.40965092182159424, 0.4004106819629669, 0.3921971321105957, 0.447638601064682, 0.3747433125972748, 0.42094457149505615, 0.42607802152633667, 0.3901437222957611, 0.441478431224823, 0.4065708518028259, 0.41067761182785034, 0.42299795150756836, 0.4383983612060547, 0.4507186710834503, 0.41889116168022156, 0.41786447167396545, 0.3767967224121094, 0.35934290289878845, 0.36242300271987915, 0.29158109426498413, 0.290554404258728, 0.23408624529838562, 0.1724846065044403, 0.17864476144313812, 0.13039013743400574, 0.10574948787689209, 0.15195071697235107, 0.17453798651695251, 0.223819300532341, 0.20739220082759857, 0.2268993854522705, 0.2248459905385971, 0.23511293530464172, 0.29876795411109924, 0.2669404447078705, 0.26180699467658997, 0.30082136392593384, 0.2731006145477295, 0.30390143394470215, 0.2669404447078705, 0.2761806845664978, 0.2659137547016144, 0.2669404447078705, 0.2833675444126129, 0.25154003500938416, 0.29671457409858704, 0.25770020484924316, 0.25154003500938416, 0.31211498379707336, 0.2843942642211914, 0.26180699467658997, 0.2607802748680115, 0.2689938545227051, 0.29774126410484314, 0.25564682483673096, 0.3347022533416748, 0.36960986256599426, 0.41478440165519714, 0.395277202129364, 0.46817249059677124, 0.4856262803077698, 0.48151952028274536, 0.5020533800125122, 0.5051334500312805, 0.40965092182159424, 0.3234086334705353, 0.2638603746891022, 0.23100616037845612, 0.24743326008319855, 0.19507186114788055, 0.2156057506799698, 0.21047228574752808, 0.20431211590766907, 0.20944558084011078, 0.19301848113536835, 0.19301848113536835, 0.20533880591392517, 0.23921971023082733, 0.23819302022457123, 0.18275153636932373, 0.19199179112911224, 0.15092402696609497, 0.035934291779994965, 0.0, 0.3254620134830475, 0.7402464151382446, 1.0, 0.7700205445289612, 0.953798770904541, 0.9496920108795166, 0.744353175163269, 0.4948665201663971, 0.48254621028900146, 0.395277202129364, 0.3203285336494446, 0.36139631271362305, 0.3829568922519684, 0.4065708518028259, 0.40965092182159424, 0.3747433125972748, 0.3788501024246216, 0.3963038921356201, 0.4373716711997986, 0.0, 0.0, 0.0, 0.0, 0.0, 0.0, 0.0, 0.0, 0.0, 0.0, 0.0, 0.0, 0.0, 0.0, 0.0, 0.0, 0.0, 0.0, 0.0, 0.0, 0.0, 0.0, 0.0, 0.0, 0.0, 0.0, 0.0, 0.0, 0.0, 0.0, 0.0, 0.0, 0.0, 0.0, 0.0, 0.0, 0.0, 0.0, 0.0, 0.0, 0.0, 0.0, 0.0, 0.0, 0.0, 0.0, 0.0, 0.0, 0.0, 0.0, 0.0, 0.0, 0.0, 0.0, 0.0, 0.0, 0.0, 0.0, 0.0, 0.0, 0.0, 0.0, 0.0, 0.0, 0.0, 0.0, 0.0, 0.0, 0.0, 0.0, 0.0, 0.0, 0.0, 0.0, 0.0, 1.0]}
02-Oct-19 20:22:59 - INFO : Sent ekg signal message: {"timestamp": "10/02/2019 20:22:59", "signal_values": [1.0, 0.7763440608978271, 0.42956990003585815, 0.30430108308792114, 0.20483870804309845, 0.11881720274686813, 0.07741935551166534, 0.049462366849184036, 0.016129031777381897, 0.034408602863550186, 0.0370967723429203, 0.008064515888690948, 0.0532258078455925, 0.03279569745063782, 0.05215053632855415, 0.054301075637340546, 0.06290322542190552, 0.0672043040394783, 0.04677419364452362, 0.07150537520647049, 0.07903225719928741, 0.08978494256734848, 0.10591398179531097, 0.11182795464992523, 0.14462365210056305, 0.19247311353683472, 0.20107527077198029, 0.21720430254936218, 0.2155914008617401, 0.25752687454223633, 0.2801075279712677, 0.2634408473968506, 0.26774194836616516, 0.23010753095149994, 0.2290322631597519, 0.19838710129261017, 0.15698924660682678, 0.13709677755832672, 0.10376343876123428, 0.0994623675942421, 0.0903225839138031, 0.11021505296230316, 0.07956989109516144, 0.059139784425497055, 0.08279570192098618, 0.05483870953321457, 0.06827957183122635, 0.05537634342908859, 0.05645161122083664, 0.05215053632855415, 0.03655913844704628, 0.045698925852775574, 0.05107526853680611, 0.03548387065529823, 0.07311827689409256, 0.07365591078996658, 0.05645161122083664, 0.05806451663374901, 0.05806451663374901, 0.08870967477560043, 0.06612902879714966, 0.06559139490127563, 0.07096774131059647, 0.03548387065529823, 0.03978494554758072, 0.024731183424592018, 0.05107526853680611, 0.04516129195690155, 0.03817204385995865, 0.05698924884200096, 0.04354838654398918, 0.07204300910234451, 0.042473118752241135, 0.06451612710952759, 0.07688172161579132, 0.08548387140035629, 0.10215053707361221, 0.11129032075405121, 0.0994623675942421, 0.125268816947937, 0.13709677755832672, 0.13387097418308258, 0.12580645084381104, 0.09301075339317322, 0.11559139937162399, 0.09623655676841736, 0.062365591526031494, 0.04354838654398918, 0.022580645978450775, 0.039247311651706696, 0.0, 0.040860213339328766, 0.045698925852775574, 0.04139785096049309, 0.05000000074505806, 0.0370967723429203, 0.042473118752241135, 0.01989247277379036, 0.032258063554763794, 0.10752688348293304, 0.2967741787433624, 0.7634408473968506, 0.9887096881866455, 0.6553763151168823, 0.38494622707366943, 0.24354839324951172, 0.18333333730697632, 0.09354838728904724, 0.02634408511221409, 0.04462365433573723, 0.032258063554763794, 0.04677419364452362, 0.05806451663374901, 0.05215053632855415, 0.07150537520647049, 0.06451612710952759, 0.07956989109516144, 0.06774193793535233, 0.07204300910234451, 0.07473118603229523, 0.08118279278278351, 0.11075268685817719, 0.0, 0.0, 0.0, 0.0, 0.0, 0.0, 0.0, 0.0, 0.0, 0.0, 0.0, 0.0, 0.0, 0.0, 0.0, 0.0, 0.0, 0.0, 0.0, 0.0, 0.0, 0.0, 0.0, 0.0, 0.0, 0.0, 0.0, 0.0, 0.0, 0.0, 0.0, 0.0, 0.0, 0.0, 0.0, 0.0, 0.0, 0.0, 0.0, 0.0, 0.0, 0.0, 0.0, 0.0, 0.0, 0.0, 0.0, 0.0, 0.0, 0.0, 0.0, 0.0, 0.0, 0.0, 0.0, 0.0, 0.0, 0.0, 0.0, 0.0, 0.0, 0.0, 0.0, 0.0, 0.0, 1.0]}
02-Oct-19 20:23:00 - INFO : Sent ekg signal message: {"timestamp": "10/02/2019 20:23:00", "signal_values": [1.0, 0.6682383418083191, 0.38705530762672424, 0.015002143569290638, 0.0762966126203537, 0.11315902322530746, 0.07672524452209473, 0.07715387642383575, 0.07201028615236282, 0.07758250832557678, 0.07029575854539871, 0.07115302234888077, 0.08486926555633545, 0.08486926555633545, 0.08786969631910324, 0.07843977957963943, 0.07672524452209473, 0.08701243251562119, 0.07501071691513062, 0.08272610604763031, 0.07672524452209473, 0.06472352892160416, 0.07201028615236282, 0.05829404294490814, 0.07543934881687164, 0.08358336985111237, 0.08229747414588928, 0.10501500219106674, 0.11744534969329834, 0.14230604469776154, 0.14702099561691284, 0.14144878089427948, 0.1508786976337433, 0.14230604469776154, 0.14830690622329712, 0.1388769894838333, 0.124732106924057, 0.14059151709079742, 0.13587655127048492, 0.14273467659950256, 0.14102014899253845, 0.12858979403972626, 0.14359194040298462, 0.12816116213798523, 0.1401628851890564, 0.1324474960565567, 0.1307329684495926, 0.1478782743215561, 0.1324474960565567, 0.13673381507396698, 0.137162446975708, 0.14102014899253845, 0.14916417002677917, 0.1401628851890564, 0.15045006573200226, 0.15045006573200226, 0.1354479193687439, 0.1650235801935196, 0.1774539202451706, 0.21217316389083862, 0.20017145574092865, 0.193313330411911, 0.20145735144615173, 0.17102442681789398, 0.16373766958713531, 0.16288040578365326, 0.13287612795829773, 0.15002143383026123, 0.11315902322530746, 0.10672952979803085, 0.08615516871213913, 0.07501071691513062, 0.08315473794937134, 0.07072439044713974, 0.06986712664365768, 0.1680240035057068, 0.39348477125167847, 0.716245174407959, 0.921988844871521, 0.5315045118331909, 0.09472782164812088, 0.0, 0.07201028615236282, 0.05657951161265373, 0.05315044894814491, 0.05529361218214035, 0.0467209592461586, 0.05657951161265373, 0.04500642791390419, 0.05186455324292183, 0.04629232734441757, 0.036862410604953766, 0.0, 0.0, 0.0, 0.0, 0.0, 0.0, 0.0, 0.0, 0.0, 0.0, 0.0, 0.0, 0.0, 0.0, 0.0, 0.0, 0.0, 0.0, 0.0, 0.0, 0.0, 0.0, 0.0, 0.0, 0.0, 0.0, 0.0, 0.0, 0.0, 0.0, 0.0, 0.0, 0.0, 0.0, 0.0, 0.0, 0.0, 0.0, 0.0, 0.0, 0.0, 0.0, 0.0, 0.0, 0.0, 0.0, 0.0, 0.0, 0.0, 0.0, 0.0, 0.0, 0.0, 0.0, 0.0, 0.0, 0.0, 0.0, 0.0, 0.0, 0.0, 0.0, 0.0, 0.0, 0.0, 0.0, 0.0, 0.0, 0.0, 0.0, 0.0, 0.0, 0.0, 0.0, 0.0, 0.0, 0.0, 0.0, 0.0, 0.0, 0.0, 0.0, 0.0, 0.0, 0.0, 0.0, 0.0, 0.0, 0.0, 0.0, 0.0, 0.0, 0.0, 0.0, 0.0, 1.0]}
02-Oct-19 20:23:01 - INFO : Sent ekg signal message: {"timestamp": "10/02/2019 20:23:01", "signal_values": [1.0, 0.8212586045265198, 0.4420941174030304, 0.12480169534683228, 0.10682179033756256, 0.2057112604379654, 0.22316235303878784, 0.2152300328016281, 0.21840296685695648, 0.22686409950256348, 0.23056583106517792, 0.23532523214817047, 0.22474880516529083, 0.22845055162906647, 0.23320993781089783, 0.2490745633840561, 0.24272871017456055, 0.24114225804805756, 0.25224748253822327, 0.25489160418510437, 0.26335272192955017, 0.26388153433799744, 0.25859335064888, 0.26388153433799744, 0.285563200712204, 0.285563200712204, 0.29613959789276123, 0.29455316066741943, 0.3019566237926483, 0.3241671025753021, 0.3368588089942932, 0.3400317430496216, 0.35007932782173157, 0.3595981001853943, 0.3786356449127197, 0.38974088430404663, 0.39820200204849243, 0.3955579102039337, 0.3945002555847168, 0.40190374851226807, 0.40190374851226807, 0.38974088430404663, 0.3722898066043854, 0.3564251661300659, 0.34056055545806885, 0.3178212642669678, 0.2924378514289856, 0.27075621485710144, 0.2533051371574402, 0.24960339069366455, 0.2506610155105591, 0.24537281692028046, 0.22580644488334656, 0.23003701865673065, 0.23691168427467346, 0.2363828718662262, 0.2379693239927292, 0.23426757752895355, 0.23056583106517792, 0.23162348568439484, 0.23691168427467346, 0.23532523214817047, 0.21893177926540375, 0.21893177926540375, 0.22421999275684357, 0.22580644488334656, 0.22263352572917938, 0.2125859260559082, 0.2014807015657425, 0.21047064661979675, 0.22633527219295502, 0.2125859260559082, 0.1998942345380783, 0.19830776751041412, 0.20306715369224548, 0.20253834128379822, 0.19249074161052704, 0.19196192920207977, 0.19407720863819122, 0.19619248807430267, 0.19672131538391113, 0.1972501277923584, 0.18297196924686432, 0.19090428948402405, 0.18826018273830414, 0.1930195689201355, 0.19090428948402405, 0.17292438447475433, 0.17451083660125732, 0.1803278625011444, 0.1887889951467514, 0.18085668981075287, 0.17133791744709015, 0.17451083660125732, 0.1760973036289215, 0.1845584362745285, 0.16869381070137024, 0.1634056121110916, 0.1708090901374817, 0.17186672985553741, 0.17133791744709015, 0.1692226380109787, 0.16393442451953888, 0.15864622592926025, 0.16287678480148315, 0.16710734367370605, 0.16023267805576324, 0.15917503833770752, 0.1523003727197647, 0.1649920642375946, 0.17662613093852997, 0.17186672985553741, 0.1634056121110916, 0.15917503833770752, 0.17451083660125732, 0.23109465837478638, 0.2506610155105591, 0.25489160418510437, 0.2543627619743347, 0.2950819730758667, 0.2670544683933258, 0.23109465837478638, 0.21575886011123657, 0.20676890015602112, 0.1803278625011444, 0.16181914508342743, 0.15335801243782043, 0.1300898939371109, 0.13749338686466217, 0.13749338686466217, 0.13590693473815918, 0.1470121592283249, 0.13537810742855072, 0.09042834490537643, 0.12533050775527954, 0.17556847631931305, 0.5087255239486694, 0.9122157692909241, 0.6520359516143799, 0.3289265036582947, 0.0, 0.025912215933203697, 0.125859335064888, 0.13802221417427063, 0.14648334681987762, 0.15917503833770752, 0.15758857131004333, 0.14806979894638062, 0.1523003727197647, 0.16446325182914734, 0.17451083660125732, 0.17133791744709015, 0.16816499829292297, 0.16975145041942596, 0.18508724868297577, 0.18826018273830414, 0.19830776751041412, 0.19672131538391113, 0.2057112604379654, 0.2057112604379654, 0.22580644488334656, 0.2210470587015152, 0.21575886011123657, 0.0, 0.0, 0.0, 0.0, 0.0, 0.0, 0.0, 0.0, 0.0, 0.0, 0.0, 0.0, 0.0, 0.0, 0.0, 0.0, 0.0, 0.0, 0.0, 0.0, 0.0, 0.0, 0.0, 0.0, 1.0]}
02-Oct-19 20:23:02 - INFO : Sent ekg signal message: {"timestamp": "10/02/2019 20:23:02", "signal_values": [1.0, 0.66847825050354, 0.135869562625885, 0.05117753520607948, 0.11503623425960541, 0.24637681245803833, 0.36684781312942505, 0.395380437374115, 0.4112318754196167, 0.4162137806415558, 0.40760868787765503, 0.44112318754196167, 0.46059781312942505, 0.4678441882133484, 0.4542572498321533, 0.4538043439388275, 0.4587862193584442, 0.448369562625885, 0.44474637508392334, 0.4624094069004059, 0.47010868787765503, 0.45923912525177, 0.44565218687057495, 0.4420289993286133, 0.4424818754196167, 0.4384058117866516, 0.417119562625885, 0.42980071902275085, 0.3686594069004059, 0.3971920311450958, 0.3917572498321533, 0.4180253744125366, 0.426630437374115, 0.44972825050354004, 0.4375, 0.4261775314807892, 0.4633152186870575, 0.4628623127937317, 0.4488224685192108, 0.4637681245803833, 0.4524456560611725, 0.4528985619544983, 0.44565218687057495, 0.4311594069004059, 0.4415760934352875, 0.40489131212234497, 0.4221014380455017, 0.4166666567325592, 0.42527174949645996, 0.4125905930995941, 0.4370470941066742, 0.4415760934352875, 0.43568840622901917, 0.4334239065647125, 0.44565218687057495, 0.44519928097724915, 0.4384058117866516, 0.44067028164863586, 0.43387681245803833, 0.44021740555763245, 0.43387681245803833, 0.43432971835136414, 0.43614131212234497, 0.42391303181648254, 0.4438405930995941, 0.4945652186870575, 0.4882246255874634, 0.4882246255874634, 0.510869562625885, 0.4950181245803833, 0.5267210006713867, 0.5267210006713867, 0.5294383764266968, 0.49184781312942505, 0.5045289993286133, 0.49818840622901917, 0.4787137806415558, 0.4420289993286133, 0.4230072498321533, 0.39900362491607666, 0.3808876872062683, 0.38813406229019165, 0.3528079688549042, 0.36548912525177, 0.37364131212234497, 0.35099637508392334, 0.3020833432674408, 0.5, 0.9130434989929199, 0.6363224387168884, 0.14945651590824127, 0.0, 0.05344202741980553, 0.0, 0.0, 0.0, 0.0, 0.0, 0.0, 0.0, 0.0, 0.0, 0.0, 0.0, 0.0, 0.0, 0.0, 0.0, 0.0, 0.0, 0.0, 0.0, 0.0, 0.0, 0.0, 0.0, 0.0, 0.0, 0.0, 0.0, 0.0, 0.0, 0.0, 0.0, 0.0, 0.0, 0.0, 0.0, 0.0, 0.0, 0.0, 0.0, 0.0, 0.0, 0.0, 0.0, 0.0, 0.0, 0.0, 0.0, 0.0, 0.0, 0.0, 0.0, 0.0, 0.0, 0.0, 0.0, 0.0, 0.0, 0.0, 0.0, 0.0, 0.0, 0.0, 0.0, 0.0, 0.0, 0.0, 0.0, 0.0, 0.0, 0.0, 0.0, 0.0, 0.0, 0.0, 0.0, 0.0, 0.0, 0.0, 0.0, 0.0, 0.0, 0.0, 0.0, 0.0, 0.0, 0.0, 0.0, 0.0, 0.0, 0.0, 0.0, 0.0, 0.0, 0.0, 1.0]}
